run_id,seed,demand_factor,mode,origin_zone,destination_zone,flow_slot,scheduled_spawn_time_s,arrival_time_s,trajectory_duration_min,average_speed_kmh,trajectory_distance_km,congestion_duration_min,low_speed_duration_min,intermediate_speed_duration_min,high_speed_duration_min,copresence_car_percentage,copresence_bike_percentage,copresence_pedestrian_percentage
5,21092030,2,car,7.1,7.6,38,13.376,78.2,1.08,20.910908,0.376396,0,0.003333,1.076667,0,0,0,0.925926
5,21092030,2,car,7.1,7.3,38,31.01,104.2,1.216667,17.772019,0.360377,0,0.003333,1.213333,0,0,0,0
5,21092030,2,car,7.1,7.3,38,62.148,137.2,1.25,17.298112,0.360377,0,0.003333,1.246667,0,0,0,0
5,21092030,2,pedestrian,7.5,7.6,38,68.295,142.2,1.23,5.34274,0.109526,0,0,0,1.23,0,0,0
5,21092030,2,pedestrian,7.6,7.5,38,73.661,151.4,1.293333,5.173448,0.111517,0,0.003333,0,1.29,0,0,0
5,21092030,2,car,7.3,7.6,38,4.625,156.8,2.533333,19.818678,0.836789,0,0.003333,2.53,0,0,0,0
5,21092030,2,car,7.1,7.3,38,77.995,158.8,1.346667,16.056328,0.360375,0,0,1.346667,0,0,0,0
5,21092030,2,pedestrian,7.6,7.5,38,84.462,162.4,1.296667,5.160149,0.111517,0,0,0,1.296667,0,0,0
5,21092030,2,car,7.3,7.1,38,31.994,165.2,2.22,13.914632,0.514841,0,2.22,0,0,0,0,0
5,21092030,2,pedestrian,7.5,7.6,38,102.886,184.6,1.36,4.832037,0.109526,0,0.003333,0,1.356667,0,0,0
5,21092030,2,pedestrian,7.6,7.5,38,108.841,186.6,1.293333,5.173448,0.111517,0,0.003333,0,1.29,0,0,0
5,21092030,2,pedestrian,7.5,7.4,38,116.103,189.2,1.216667,4.371684,0.088648,0,0,0.003333,1.213333,0,0,0
5,21092030,2,car,7.1,7.5,38,107.756,197.6,1.496667,16.1789,0.403574,0.116667,0.28,1.1,0,0,0,0
5,21092030,2,bike,7.1,7.6,38,124.77,199.4,1.243333,10.511903,0.21783,0,0.54,0.003333,0.7,0,0,0.268097
5,21092030,2,car,7.1,7.3,38,116.836,200.2,1.386667,15.59325,0.360377,0,0.003333,1.383333,0,0,0,0
5,21092030,2,car,7.1,7.6,38,95.548,205,1.823333,12.385986,0.376396,0,1.823333,0,0,0,0,0
5,21092030,2,pedestrian,7.6,7.5,38,127.353,214.2,1.446667,4.625051,0.111515,0,0,0,1.446667,0,0,0
5,21092030,2,car,7.1,7.3,38,145.113,216,1.18,18.324272,0.360377,0,0.003333,1.176667,0,0,0,0
5,21092030,2,pedestrian,7.6,7.5,38,127.409,216.6,1.483333,4.510782,0.111517,0.04,0.02,0.173333,1.25,0,0,0
5,21092030,2,car,7.1,7.6,38,152.247,221.8,1.156667,19.524877,0.376396,0,0.003333,1.153333,0,0,0,0
5,21092030,2,bike,7.1,7.6,38,167.267,224.6,0.953333,13.70958,0.21783,0,0.413333,0.003333,0.536667,0,0,1.048951
5,21092030,2,pedestrian,7.6,7.5,38,149.653,226,1.27,5.268498,0.111517,0,0,0,1.27,0,0,0
5,21092030,2,pedestrian,7.6,7.5,38,153.135,231.6,1.306667,5.120658,0.111517,0,0.003333,0,1.303333,0,0,0
5,21092030,2,bike,7.6,7.1,38,165.55,233.6,1.133333,11.532176,0.21783,0,0.493333,0,0.64,0,0,2.058824
5,21092030,2,car,7.1,7.3,38,171.929,234.8,1.046667,20.658574,0.360377,0,0,1.046667,0,0,0,0
5,21092030,2,pedestrian,7.1,7.3,38,29.988,241,3.516667,5.96943,0.349875,0.153333,0.06,0.086667,3.216667,1.421801,0,0
5,21092030,2,car,7.1,7.3,38,189.006,251.4,1.036667,20.857853,0.360377,0,0,1.036667,0,0,0,0
5,21092030,2,bike,7.6,7.1,38,185.406,265.6,1.333333,9.802349,0.21783,0,0.58,0.753333,0,0,0,2
5,21092030,2,car,7.3,7.1,38,172.538,269.6,1.616667,19.107516,0.514841,0,0.003333,1.613333,0,0,0,0.412371
5,21092030,2,bike,7.1,7.6,38,189.6,269.6,1.333333,9.802325,0.217829,0,0.576667,0.756667,0,0,0,3
5,21092030,2,pedestrian,7.1,7.6,38,116.753,270.4,2.56,6.822916,0.291111,0,0,0.003333,2.556667,1.171875,1.692708,0
5,21092030,2,car,7.3,7.1,38,191.58,278.6,1.45,21.303782,0.514841,0,0.003333,1.446667,0,0,0,0
5,21092030,2,car,7.1,7.3,38,208.4,278.8,1.17,18.480871,0.360377,0,0.003333,1.166667,0,0,0,0
5,21092030,2,car,7.1,7.6,38,217.84,290.2,1.203333,18.767685,0.376396,0,0,1.203333,0,0,0,0
5,21092030,2,bike,7.1,7.6,38,222.611,291.2,1.14,11.464736,0.21783,0,0.496667,0.003333,0.64,0,0,2.046784
5,21092030,2,car,7.6,7.1,38,228.926,294.6,1.093333,16.160067,0.294472,0,0.003333,1.09,0,0,0,0
5,21092030,2,car,7.3,7.1,38,196.958,295.2,1.636667,18.874023,0.514841,0,0.016667,1.62,0,0,0,0.610998
5,21092030,2,bike,7.1,7.5,38,170.8,303,2.2,11.507937,0.421958,0.15,0.73,0.116667,1.203333,0,0,8.333333
5,21092030,2,car,7.3,7.1,38,197.135,303,1.763333,17.518223,0.514841,0.006667,0.006667,1.75,0,0,0,0
5,21092030,2,car,7.1,7.6,38,229.024,307.2,1.3,17.372139,0.376396,0,0.003333,1.296667,0,0,0,0
5,21092030,2,car,7.1,7.3,38,219.712,315.4,1.593333,13.570695,0.360377,0,1.593333,0,0,0,0,0
5,21092030,2,car,7.5,7.3,38,188.094,316,2.13,15.996426,0.567873,0.01,0.203333,1.916667,0,0,0,0
5,21092030,2,pedestrian,7.1,7.4,38,20.836,326.6,5.093333,4.573075,0.388203,0,0,0.003333,5.09,0,10.863874,0
5,21092030,2,pedestrian,7.5,7.6,38,259.164,333.2,1.233333,5.3283,0.109526,0,0,0,1.233333,0.540541,0,0
5,21092030,2,car,7.3,7.6,38,181.451,334.6,2.55,19.689144,0.836789,0,0,2.55,0,0,0,0
5,21092030,2,pedestrian,7.4,7.5,38,52.188,336.8,4.743333,4.6919,0.370921,0,0,0.003333,4.74,0,0,0
5,21092030,2,car,7.1,7.6,38,281.095,353.4,1.203333,18.767674,0.376396,0,0.003333,1.2,0,0,0,0
5,21092030,2,pedestrian,7.6,7.5,38,285.393,355.6,1.17,5.718797,0.111517,0,0.003333,0,1.166667,0.854701,0,0
5,21092030,2,bike,7.6,7.1,38,282.028,356.8,1.243333,10.511903,0.21783,0,0.54,0.003333,0.7,0,0,8.579088
5,21092030,2,pedestrian,7.6,7.1,38,54.485,362.4,5.13,4.922688,0.42089,0,0.003333,0,5.126667,0.519818,2.14425,0
5,21092030,2,car,7.1,7.6,38,283.303,372.6,1.486667,15.190884,0.376396,0,0.003333,1.483333,0,0,0,0.672646
5,21092030,2,bike,7.1,7.5,38,264.528,378.6,1.9,13.324975,0.421958,0,0.493333,0.006667,1.4,0,0,2.982456
5,21092030,2,bike,7.1,7.6,38,309.27,390.8,1.356667,9.633759,0.21783,0,0.586667,0.77,0,0,0,0.737101
5,21092030,2,car,7.1,7.3,38,342.25,394,0.86,25.142605,0.360377,0,0.003333,0,0.856667,0,0,1.162791
5,21092030,2,pedestrian,7.6,7.5,38,311.245,394.4,1.383333,4.836862,0.111517,0,0.003333,0,1.38,0,0,0
5,21092030,2,pedestrian,7.5,7.6,38,330.213,397.8,1.123333,5.849812,0.109521,0,0,0,1.123333,0,0,0
5,21092030,2,pedestrian,7.1,7.6,38,144.276,400.4,4.266667,4.09375,0.291111,0,0.003333,0,4.263333,0,2.34375,0
5,21092030,2,car,7.1,7.6,38,334.519,404,1.156667,19.524883,0.376396,0,0,1.156667,0,0,0,0
5,21092030,2,pedestrian,7.6,7.5,38,339.333,405,1.093333,6.119811,0.111517,0,0,0,1.093333,0,0,0
5,21092030,2,pedestrian,7.6,7.5,38,346.245,413,1.11,6.027922,0.111517,0,0,0.003333,1.106667,0,0,0
5,21092030,2,bike,7.1,7.6,38,324.398,418,1.56,8.378073,0.21783,0.036667,0.736667,0.786667,0,0,0,5.34188
5,21092030,2,car,7.1,7.3,38,348.004,419,1.18,18.324272,0.360377,0,0.003333,1.176667,0,0,0,0
5,21092030,2,pedestrian,7.5,7.4,38,357.484,424,1.106667,4.806219,0.088648,0,0.003333,0,1.103333,0,1.506024,0
5,21092030,2,car,7.6,7.3,38,333.785,428.2,1.573333,16.942726,0.444276,0,0.003333,1.57,0,0,0,0
5,21092030,2,car,7.3,7.1,38,328.889,432,1.716667,17.994457,0.514841,0,0.003333,1.713333,0,0,0,0
5,21092030,2,car,7.3,7.1,38,337.866,436.8,1.646667,18.759402,0.514841,0,0.003333,1.643333,0,0,0,0
5,21092030,2,pedestrian,7.5,7.4,38,362.468,438.4,1.263333,4.210197,0.088648,0,0.003333,0,1.26,0.263852,1.319261,0
5,21092030,2,pedestrian,7.3,7.1,38,107.928,438.8,5.513333,5.21993,0.479654,0,0,0,5.513333,0,0,0
5,21092030,2,car,7.3,7.1,38,344.528,443.4,1.646667,18.759403,0.514841,0,0.003333,1.643333,0,0,0,0.404858
5,21092030,2,pedestrian,7.5,7.3,38,87.685,450.8,6.05,5.108336,0.515091,0.113333,0.043333,0.136667,5.756667,0.661157,0,0
5,21092030,2,car,7.1,7.3,38,389.468,460.4,1.18,18.324272,0.360377,0,0.003333,1.176667,0,0,0,0
5,21092030,2,pedestrian,7.1,7.3,38,216.486,460.8,4.07,5.157861,0.349875,0.03,0.003333,0.123333,3.913333,1.228501,0,0
5,21092030,2,car,7.1,7.3,38,402.83,460.8,0.963333,22.445648,0.360377,0,0.02,0.943333,0,0,0,0.346021
5,21092030,2,car,7.1,7.3,38,407.952,474.4,1.106667,19.53851,0.360377,0,0.003333,1.103333,0,0,0,0
5,21092030,2,car,7.5,7.3,38,388.3,477.8,1.49,22.867355,0.567873,0,0.006667,1.483333,0,0,0,0.894855
5,21092030,2,car,7.1,7.3,38,423.915,478.2,0.903333,23.936497,0.360377,0,0.04,0.136667,0.726667,0,0,0
5,21092030,2,bike,7.1,7.6,38,402.167,485.6,1.39,9.402722,0.21783,0.076667,0.67,0.05,0.593333,0,0,5.035971
5,21092030,2,pedestrian,7.4,7.6,38,312.111,489.2,2.95,5.276204,0.259413,0,0,0.003333,2.946667,0,0.564972,0
5,21092030,2,pedestrian,7.5,7.4,38,431.651,509.6,1.296667,4.101966,0.088648,0,0.003333,0,1.293333,0,0,0
5,21092030,2,pedestrian,7.5,7.4,38,439.184,511.2,1.2,4.432402,0.088648,0.073333,0.046667,0.12,0.96,0,0,0
5,21092030,2,pedestrian,7.5,7.3,38,117.935,511.8,6.563333,4.708801,0.515091,0.006667,0.006667,0.14,6.41,0.660234,0,0
5,21092030,2,pedestrian,7.5,7.4,38,451.564,513,1.023333,5.197605,0.088648,0.053333,0.01,0.056667,0.903333,0,0,0
5,21092030,2,pedestrian,7.6,7.3,38,178.683,513.6,5.58,5.427533,0.504761,0.046667,0.07,0.253333,5.21,1.194743,1.015532,0
5,21092030,2,pedestrian,7.1,7.6,38,288.628,514.2,3.756667,4.649485,0.291109,0.173333,0.08,0.523333,2.98,0,8.429459,0
5,21092030,2,pedestrian,7.5,7.3,38,131.257,515.2,6.396667,4.83149,0.515091,0.566667,0.293333,0.52,5.016667,0.677436,0,0
5,21092030,2,bike,7.6,7.1,38,438.333,517.6,1.32,9.901339,0.217829,0.073333,0.61,0.056667,0.58,0,0,9.59596
5,21092030,2,pedestrian,7.6,7.5,38,406.046,517.8,1.86,3.5973,0.111516,0,0,1.86,0,0,0,0
5,21092030,2,pedestrian,7.5,7.1,38,20.997,519,8.3,3.781575,0.523118,0,0,8.3,0,0.923695,0.722892,0
5,21092030,2,pedestrian,7.5,7.3,38,152.409,519,6.106667,5.060933,0.515091,0.07,0.066667,0.09,5.88,0.818777,0,0
5,21092030,2,pedestrian,7.5,7.3,38,166.506,520.6,5.9,5.238191,0.515089,0.233333,0.156667,0.403333,5.106667,1.073446,0,0
5,21092030,2,pedestrian,7.5,7.1,38,52.773,521.2,7.806667,4.020563,0.52312,0.31,0.276667,1.54,5.68,0.683177,0.469684,0
5,21092030,2,pedestrian,7.5,7.1,38,42.087,523,8.013333,3.916864,0.523119,1.363333,0.59,1.636667,4.423333,1.039933,0.582363,0
5,21092030,2,car,7.3,7.1,38,415.895,524.4,1.806667,17.098054,0.514841,0,0.003333,1.803333,0,0,0,0
5,21092030,2,pedestrian,7.5,7.4,38,455.42,525.6,1.166667,4.559042,0.088648,0,0,0.003333,1.163333,0,0,0
5,21092030,2,pedestrian,7.5,7.4,38,467.122,527.2,1,5.318883,0.088648,0.016667,0.003333,0.086667,0.893333,0,0,0
5,21092030,2,bike,7.1,7.6,38,444.014,527.6,1.39,9.402726,0.21783,0.143333,0.636667,0.123333,0.486667,0,0,4.796163
5,21092030,2,pedestrian,7.1,7.5,38,216.128,529.6,5.223333,4.624951,0.402628,0,0,0.003333,5.22,0,5.360562,0
5,21092030,2,pedestrian,7.5,7.3,38,173.476,544,6.173333,5.00628,0.515091,0,0.003333,0,6.17,0.431965,0,0
5,21092030,2,pedestrian,7.5,7.1,38,123.335,551.8,7.14,4.395966,0.52312,0,0.006667,0,7.133333,0,0,0
5,21092030,2,car,7.1,7.3,38,461.682,551.8,1.5,14.415089,0.360377,0,1.5,0,0,0,0,0
5,21092030,2,pedestrian,7.6,7.5,38,477.469,552.4,1.246667,5.367107,0.111517,0,0,0,1.246667,0,0,0
5,21092030,2,pedestrian,7.3,7.6,38,150.371,553.2,6.713333,4.511261,0.50476,0.026667,0,0.003333,6.683333,1.737835,7.398213,0
5,21092030,2,car,7.1,7.3,38,482.802,561.6,1.31,16.505832,0.360377,0,0.003333,1.306667,0,0,0,1.017812
5,21092030,2,pedestrian,7.5,7.4,38,472.127,562,1.496667,3.553819,0.088648,0,0.003333,1.493333,0,0,0,0
5,21092030,2,car,7.1,7.3,38,489.307,562.6,1.22,17.723476,0.360377,0,0.003333,1.216667,0,0,0,0
5,21092030,2,pedestrian,7.6,7.4,38,381.095,564.2,3.05,3.898465,0.198172,0.043333,0.103333,0.54,2.363333,0,0,0
5,21092030,2,pedestrian,7.6,7.4,38,397.361,566.4,2.816667,4.221463,0.198174,0.106667,0.1,0.263333,2.346667,0,0,0
5,21092030,2,car,7.3,7.1,38,474.174,568,1.563333,19.759371,0.514841,0,0,1.563333,0,0,0,0.639659
5,21092030,2,pedestrian,7.5,7.4,38,487.085,568.6,1.356667,3.920552,0.088648,0.146667,0.063333,0.093333,1.053333,0,0,0
5,21092030,2,pedestrian,7.5,7.4,38,510.77,570.4,0.993333,5.354579,0.088648,0.006667,0.013333,0.023333,0.95,0,0,0
5,21092030,2,pedestrian,7.6,7.5,38,495.113,572.2,1.283333,5.213761,0.111517,0,0.003333,0,1.28,0,0,0
5,21092030,2,pedestrian,7.3,7.1,38,194.303,583.8,6.49,4.434396,0.479654,0,0,0,6.49,0.667694,0.513611,0
5,21092030,2,pedestrian,7.6,7.1,38,343.971,585.4,4.023333,6.276736,0.42089,0.19,0.123333,0.01,3.7,0.74565,1.491301,0
5,21092030,2,pedestrian,7.1,7.3,38,326.796,593.6,4.446667,4.720951,0.349875,0,0,0.003333,4.443333,0.29985,0.524738,0
5,21092030,2,pedestrian,7.1,7.4,38,246.83,599.8,5.88,3.961257,0.388203,0,0,5.88,0,0.170068,0,0
5,21092030,2,car,7.1,7.6,38,519.372,600.2,1.346667,16.770134,0.376396,0,0.003333,1.343333,0,0,0,0
5,21092030,2,pedestrian,7.1,7.4,38,290.237,606,5.26,4.428163,0.388202,0.003333,0.003333,0.003333,5.25,0,0.760456,0
5,21092030,2,pedestrian,7.1,7.4,38,293.945,608,5.233333,4.450738,0.388203,0.153333,0.136667,0.886667,4.056667,0.382166,1.592357,0
5,21092030,2,pedestrian,7.5,7.6,38,539.119,613.4,1.236667,5.313912,0.109526,0,0,0.003333,1.233333,0,0,0
5,21092030,2,pedestrian,7.1,7.5,38,235.167,618.4,6.386667,3.782514,0.402628,0,0.003333,6.383333,0,0,1.461378,0
5,21092030,2,pedestrian,7.5,7.6,38,549.748,618.6,1.146667,5.73102,0.109526,0,0,0.003333,1.143333,0,0,0
5,21092030,2,pedestrian,7.1,7.5,38,291.076,620,5.48,4.408332,0.402628,0.173333,0.19,0.813333,4.303333,0,8.698297,0
5,21092030,2,pedestrian,7.5,7.3,38,200.801,620.4,6.99,4.421365,0.515089,0,0,0,6.99,1.096805,0.619933,0
5,21092030,2,pedestrian,7.3,7.5,38,127.572,624,8.273333,4.469348,0.616273,0,0,0,8.273333,1.410153,0.765512,0
5,21092030,2,bike,7.6,7.1,38,554.183,624,1.163333,11.234784,0.21783,0.006667,0.506667,0,0.65,0,0,4.297994
5,21092030,2,pedestrian,7.1,7.5,38,328.601,625.6,4.946667,4.883607,0.402626,0.13,0.136667,0.543333,4.136667,0,1.145553,0
5,21092030,2,car,7.1,7.3,38,546.47,625.6,1.316667,16.422226,0.360377,0,0,1.316667,0,0,0,1.012658
5,21092030,2,pedestrian,7.1,7.4,38,344.482,626,4.69,4.966353,0.388203,0,0,0.003333,4.686667,0.497512,0,0
5,21092030,2,pedestrian,7.3,7.5,38,150.111,627.4,7.953333,4.649199,0.616277,0.52,0.276667,0.82,6.336667,1.508801,1.131601,0
5,21092030,2,pedestrian,7.5,7.4,38,559.842,630.2,1.17,4.546054,0.088648,0.02,0.003333,0.006667,1.14,0,0,0
5,21092030,2,bike,7.1,7.6,38,549.515,631.4,1.363333,9.58665,0.21783,0.093333,0.61,0.06,0.6,0,0,8.557457
5,21092030,2,pedestrian,7.5,7.4,38,564,631.6,1.126667,4.720614,0.088643,0.09,0.053333,0.143333,0.84,0,0,0
5,21092030,2,pedestrian,7.5,7.1,38,214.145,633.4,6.986667,4.492442,0.52312,0,0,0.003333,6.983333,1.383588,0.572519,0
5,21092030,2,pedestrian,7.5,7.1,38,216.771,635.2,6.973333,4.501032,0.52312,0.163333,0.11,1.216667,5.483333,1.195029,0.573614,0
5,21092030,2,pedestrian,7.1,7.5,38,351.645,636,4.736667,5.100081,0.402623,0.003333,0.003333,0,4.73,0,0.985222,0
5,21092030,2,pedestrian,7.5,7.1,38,285.84,636.6,5.843333,5.371454,0.52312,0.513333,0.176667,0.623333,4.53,0,0.285225,0
5,21092030,2,pedestrian,7.4,7.5,38,409.614,637,3.786667,5.877377,0.370928,0.036667,0.046667,0.21,3.493333,0,0,0
5,21092030,2,car,7.3,7.1,38,513.123,642,2.146667,14.389976,0.514841,0,2.146667,0,0,0,0,0.310559
5,21092030,2,car,7.1,7.3,38,568.811,655.8,1.446667,14.946526,0.360377,0,1.446667,0,0,0,0,0
5,21092030,2,pedestrian,7.5,7.3,38,239.384,662.2,7.046667,4.385739,0.515081,0,0,0.003333,7.043333,0.236518,0.614948,0
5,21092030,2,pedestrian,7.5,7.3,38,282.455,664,6.356667,4.861893,0.515091,0.113333,0.123333,0.55,5.57,0.31463,0.262192,0
5,21092030,2,pedestrian,7.5,7.3,38,272.186,666,6.563333,4.708789,0.515089,0.263333,0.243333,0.423333,5.633333,0.304723,0.253936,0
5,21092030,2,pedestrian,7.5,7.6,38,578.069,669.4,1.52,4.323401,0.109526,0,0,0,1.52,0,0,0
5,21092030,2,pedestrian,7.3,7.4,38,251.005,675.2,7.066667,4.329787,0.509953,0,0,0,7.066667,0,0,0
5,21092030,2,car,7.3,7.1,38,594.338,676.8,1.373333,22.493071,0.514841,0,0,1.373333,0,0,0,0
5,21092030,2,pedestrian,7.6,7.5,38,607.429,677.2,1.16,5.768097,0.111517,0,0,0.003333,1.156667,0,0,0
5,21092030,2,pedestrian,7.5,7.6,38,587.207,678.4,1.516667,4.332904,0.109526,0,0.003333,0,1.513333,0,0,0
5,21092030,2,pedestrian,7.5,7.1,38,310.246,679.8,6.156667,5.098083,0.52312,0,0,0,6.156667,0.541419,0.270709,0
5,21092030,2,pedestrian,7.1,7.3,38,418.324,682,4.393333,4.778262,0.349875,0,0.003333,0,4.39,0.227618,0,0
5,21092030,2,car,7.3,7.1,38,612.606,686.6,1.23,25.114215,0.514841,0,0.006667,0.003333,1.22,0,0,1.084011
5,21092030,2,pedestrian,7.5,7.4,38,626.717,691.8,1.083333,4.909738,0.088648,0,0.003333,0,1.08,0,0,0
5,21092030,2,car,7.1,7.3,38,609.668,692.6,1.38,15.668576,0.360377,0,0,1.38,0,0,0,0.483092
5,21092030,2,car,7.1,7.3,38,615.403,693.2,1.293333,16.718536,0.360377,0.106667,0.163333,1.023333,0,0,0,0.515464
5,21092030,2,pedestrian,7.3,7.6,38,256.131,696.8,7.343333,4.124236,0.504761,0,0,0.003333,7.34,0.68089,4.493872,0
5,21092030,2,pedestrian,7.5,7.4,38,637.393,701.4,1.066667,4.986453,0.088648,0,0.003333,0,1.063333,0,0,0
5,21092030,2,pedestrian,7.1,7.6,38,508.488,702,3.223333,5.418821,0.291111,0,0,0.003333,3.22,0,2.275078,0
5,21092030,2,pedestrian,7.6,7.1,38,401.298,722,5.343333,4.726151,0.42089,0,0,0.003333,5.34,0,6.238303,0
5,21092030,2,car,7.1,7.3,38,672.26,733.8,1.023333,21.129616,0.360377,0,0.003333,1.02,0,0,0,0
5,21092030,2,pedestrian,7.5,7.6,38,659.056,735,1.263333,5.201771,0.109526,0,0,0.003333,1.26,0,0,0
5,21092030,2,bike,7.6,7.1,38,652.346,738,1.426667,9.161074,0.21783,0.143333,0.673333,0.113333,0.496667,0,0,12.149533
5,21092030,2,bike,7.1,7.6,38,626.039,738.8,1.876667,6.964365,0.21783,0.386667,0.746667,0.316667,0.426667,0,0,9.946714
5,21092030,2,pedestrian,7.6,7.5,38,640.557,740,1.656667,4.038828,0.111517,0,0,0.003333,1.653333,0,0,0
5,21092030,2,car,7.1,7.5,38,665.121,743.2,1.3,18.626461,0.403573,0,0.003333,1.296667,0,0,0,0
5,21092030,2,pedestrian,7.5,7.4,38,681.981,744,1.033333,5.147306,0.088648,0,0,0.003333,1.03,0,1.612903,0
5,21092030,2,bike,7.1,7.6,38,632.297,745.4,1.883333,6.939716,0.21783,0.4,0.836667,0.17,0.476667,0,0,9.557522
5,21092030,2,pedestrian,7.5,7.6,38,664.178,747.8,1.393333,4.716438,0.109526,0,0,0.003333,1.39,0,0,0
5,21092030,2,pedestrian,7.6,7.5,38,682.525,757,1.24,5.395962,0.111517,0,0,0,1.24,0,0,0
5,21092030,2,pedestrian,7.3,7.5,38,332.544,777.2,7.41,4.990099,0.616277,0.043333,0.043333,0.156667,7.166667,1.619433,0.854701,0
5,21092030,2,pedestrian,7.5,7.3,38,371.519,778.4,6.78,4.558323,0.515091,0,0,0.003333,6.776667,0.786627,0.196657,0
5,21092030,2,bike,7.1,7.6,38,687.288,780,1.543333,8.468552,0.21783,0.116667,0.763333,0.1,0.563333,0,0,3.239741
5,21092030,2,pedestrian,7.5,7.3,38,383.739,780.6,6.613333,4.6732,0.515091,0.02,0.023333,0.226667,6.343333,0.302419,0,0
5,21092030,2,bike,7.1,7.6,38,698.845,780.8,1.363333,9.58665,0.21783,0.046667,0.606667,0.046667,0.663333,0,0,0
5,21092030,2,bike,7.1,7.6,38,708.253,781.6,1.22,10.712929,0.21783,0.04,0.52,0.05,0.61,0,0,0.546448
5,21092030,2,pedestrian,7.5,7.3,38,399.672,782.4,6.376667,4.84663,0.515089,0.126667,0.173333,0.643333,5.433333,0.522739,0,0
5,21092030,2,pedestrian,7.5,7.1,38,380.992,789.4,6.806667,4.611243,0.52312,0,0.003333,0,6.803333,0.734574,0,0
5,21092030,2,pedestrian,7.5,7.4,38,701.842,791.6,1.493333,3.561752,0.088648,0,0,1.493333,0,0.223214,0,0
5,21092030,2,pedestrian,7.6,7.5,38,720.387,803.6,1.386667,4.825235,0.111517,0,0,0.003333,1.383333,0,0,0
5,21092030,2,pedestrian,7.6,7.4,38,644.59,804.2,2.66,4.470095,0.198174,0.046667,0.056667,0.256667,2.3,0.37594,0,0
5,21092030,2,pedestrian,7.4,7.5,38,528.533,812,4.723333,4.711883,0.37093,0,0,0.003333,4.72,0.141143,0,0
5,21092030,2,pedestrian,7.1,7.5,38,529.092,813.8,4.743333,5.092971,0.402628,0.03,0.023333,0.176667,4.513333,0.35137,0.983837,0
5,21092030,2,bike,7.1,7.6,38,718.836,814,1.583333,8.25461,0.21783,0.073333,0.713333,0.796667,0,0,0,8.210526
5,21092030,2,bike,7.1,7.6,38,724.951,814.6,1.493333,8.752098,0.21783,0.163333,0.643333,0.276667,0.41,0,0,2.678571
5,21092030,2,bike,7.1,7.5,38,615.726,819.4,3.393333,7.460942,0.421958,0,0.89,2.503333,0,0,0,6.385069
5,21092030,2,pedestrian,7.5,7.4,38,749.136,820.4,1.186667,4.482205,0.088648,0,0.003333,0,1.183333,0,0,0
5,21092030,2,pedestrian,7.5,7.6,38,726.437,822,1.59,4.133063,0.109526,0,0,0.003333,1.586667,0,0,0
5,21092030,2,pedestrian,7.3,7.5,38,369.766,829.6,7.663333,4.825137,0.616277,0,0.003333,0,7.66,1.217921,0.130492,0
5,21092030,2,pedestrian,7.5,7.6,38,757.288,830.8,1.223333,5.371856,0.109526,0,0,0,1.223333,0,0,0
5,21092030,2,car,7.1,7.3,38,735.103,832.6,1.623333,13.319902,0.360377,0,1.623333,0,0,0,0,0
5,21092030,2,car,7.1,7.3,38,745.416,833.2,1.46,14.810024,0.360377,0.076667,0.436667,0.946667,0,0,0,0
5,21092030,2,pedestrian,7.1,7.3,38,588.597,833.6,4.083333,5.141003,0.349874,0,0,0,4.083333,1.22449,3.346939,0
5,21092030,2,bike,7.1,7.6,38,765.617,840.2,1.24,10.540161,0.21783,0.016667,0.546667,0.016667,0.66,0,0,4.032258
5,21092030,2,bike,7.6,7.1,38,740.891,842.6,1.693333,7.718385,0.21783,0.006667,0.74,0.946667,0,0,0,4.527559
5,21092030,2,bike,7.6,7.1,38,745.272,844.6,1.653333,7.90512,0.21783,0.166667,0.706667,0.223333,0.556667,0,0,3.024194
5,21092030,2,car,7.3,7.1,38,736.485,847.6,1.85,16.697559,0.514841,0,0.003333,1.846667,0,0,0,0
5,21092030,2,pedestrian,7.6,7.5,38,773.562,855,1.356667,4.931936,0.111517,0,0,0,1.356667,0,0,0
5,21092030,2,car,7.1,7.3,38,784.938,863.4,1.306667,16.547939,0.360377,0,0.003333,1.303333,0,0,0,0
5,21092030,2,car,7.1,7.3,38,790.965,864,1.216667,17.772021,0.360377,0.003333,0.133333,1.08,0,0,0,0
5,21092030,2,bike,7.5,7.1,38,684.481,864.2,2.993333,8.45795,0.421958,0.17,0.916667,1.906667,0,0,0,2.895323
5,21092030,2,bike,7.6,7.1,38,774.217,866.6,1.536667,8.505277,0.21783,0.023333,0.676667,0.836667,0,0,0,5.206074
5,21092030,2,pedestrian,7.5,7.6,38,800.432,868.6,1.133333,5.798425,0.109526,0,0,0.003333,1.13,0,0,0
5,21092030,2,pedestrian,7.5,7.1,38,413.237,880.6,7.786667,4.03089,0.52312,0,0,0.003333,7.783333,0.599315,0.984589,0
5,21092030,2,pedestrian,7.3,7.1,38,510.036,882.2,6.2,4.641811,0.479654,0.8,0.36,0.686667,4.353333,1.075269,0,0
5,21092030,2,pedestrian,7.5,7.1,38,551.913,884,5.533333,5.672385,0.52312,0.206667,0.046667,0.086667,5.193333,0,0,0
5,21092030,2,pedestrian,7.5,7.1,38,488.886,889.6,6.676667,4.701028,0.52312,0.603333,0.283333,0.356667,5.433333,0,0,0
5,21092030,2,pedestrian,7.5,7.1,38,557.057,891.4,5.57,5.635043,0.52312,0.103333,0.033333,0.13,5.303333,0,0,0
5,21092030,2,car,7.1,7.6,38,810.183,896,1.43,15.792854,0.376396,0,0.003333,1.426667,0,0,0,0
5,21092030,2,pedestrian,7.3,7.5,38,394.943,897.2,8.37,4.417747,0.616276,0,0.003333,0.003333,8.363333,1.075269,12.226205,0
5,21092030,2,pedestrian,7.6,7.5,38,808.623,898.4,1.493333,4.480576,0.111517,0.086667,0.123333,0.153333,1.13,0,0,0
5,21092030,2,pedestrian,7.6,7.5,38,814.02,901,1.446667,4.62511,0.111517,0.03,0.03,0.126667,1.26,0,0,0
5,21092030,2,pedestrian,7.5,7.1,38,488.352,907,6.976667,4.498882,0.52312,0.456667,0.303333,0.396667,5.82,0,0,0
5,21092030,2,car,7.5,7.1,38,811.482,908.8,1.62,15.484057,0.41807,0,0.003333,1.616667,0,0,0,0.411523
5,21092030,2,pedestrian,7.3,7.6,38,459.098,909.6,7.506667,4.034495,0.50476,1.233333,0.79,0.07,5.413333,1.420959,2.353464,0
5,21092030,2,car,7.1,7.3,38,836.903,911.8,1.246667,17.344364,0.360377,0,0.003333,1.243333,0,0,0,0
5,21092030,2,car,7.1,7.3,38,844.783,912.4,1.126667,19.191693,0.360377,0.01,0.086667,1.03,0,0,0,0
5,21092030,2,pedestrian,7.5,7.1,38,600.898,919.4,5.306667,5.914673,0.52312,0,0.003333,0,5.303333,0,0,0
5,21092030,2,car,7.1,7.3,38,853.137,924.2,1.183333,18.272654,0.360377,0,0.003333,1.18,0,0,0,0
5,21092030,2,car,7.1,7.3,38,856.556,925.6,1.15,18.802296,0.360377,0,0.006667,1.143333,0,0,0,0
5,21092030,2,car,7.1,7.6,38,853.348,926,1.21,18.664282,0.376396,0.023333,0.016667,1.17,0,0,0,1.101928
5,21092030,2,pedestrian,7.1,7.5,38,590.66,930.2,5.656667,4.270649,0.402627,0.09,0.093333,0.193333,5.28,0,20.212139,0
5,21092030,2,pedestrian,7.4,7.5,38,696.926,931.6,3.91,5.692019,0.37093,0.01,0.016667,0.043333,3.84,0,0,0
5,21092030,2,bike,7.1,7.6,38,857.623,932.8,1.25,10.455839,0.21783,0,0.543333,0.003333,0.703333,0,0,4
5,21092030,2,bike,7.6,7.1,38,855.279,939.8,1.406667,9.291318,0.21783,0,0.61,0.796667,0,0,0,10.900474
5,21092030,2,car,7.3,7.1,38,825.458,941,1.923333,16.060723,0.514835,0,0.003333,1.92,0,0,0,0.519931
5,21092030,2,pedestrian,7.5,7.3,38,486.703,943.4,7.61,4.061161,0.515091,0,0,0.003333,7.606667,0.175208,0,0
5,21092030,2,pedestrian,7.5,7.4,38,859.446,944.6,1.416667,3.754506,0.088648,0,0.003333,1.413333,0,0,0,0
5,21092030,2,pedestrian,7.5,7.3,38,499.233,945.2,7.43,4.159547,0.515091,0.866667,0.423333,0.603333,5.536667,0.224316,0,0
5,21092030,2,pedestrian,7.5,7.4,38,877.507,946.6,1.15,4.625115,0.088648,0.04,0.016667,0.19,0.903333,0,0,0
5,21092030,2,bike,7.5,7.1,38,806.798,947.2,2.34,10.819428,0.421958,0,0.613333,1.726667,0,0,0,7.834758
5,21092030,2,pedestrian,7.6,7.4,38,794.709,956.4,2.693333,4.414772,0.198174,0,0,0.003333,2.69,0,0,0
5,21092030,2,pedestrian,7.5,7.4,38,885.886,958.4,1.206667,4.407914,0.088648,0.013333,0.066667,0.193333,0.933333,0,0,0
5,21092030,2,bike,7.1,7.6,38,886.561,965,1.306667,10.002397,0.21783,0.11,0.593333,0.006667,0.596667,0,0,22.193878
5,21092030,2,car,7.3,7.6,38,822.051,966.4,2.403333,20.890701,0.836789,0,0.003333,2.4,0,0,0,0
5,21092030,2,pedestrian,7.4,7.5,38,718.367,968.6,4.17,5.337121,0.37093,0.003333,0,0.026667,4.14,0,0.559552,0
5,21092030,2,pedestrian,7.5,7.4,38,891.825,979.6,1.46,3.64307,0.088648,0,0,1.46,0,0,0,0
5,21092030,2,pedestrian,7.4,7.6,38,802.878,984.8,3.03,5.136898,0.259413,0,0.003333,0,3.026667,0.440044,0,0
5,21092030,2,car,7.1,7.3,38,865.242,985.6,2.003333,10.793316,0.360377,0,2.003333,0,0,0,0,0
5,21092030,2,pedestrian,7.6,7.3,38,627.447,985.8,5.97,5.072971,0.504761,0,0.003333,0,5.966667,1.284199,9.380235,0
5,21092030,2,car,7.1,7.3,38,881.761,986,1.736667,12.450657,0.360377,0.34,0.486667,0.91,0,0,0,0
5,21092030,2,car,7.5,7.3,38,874.655,986.6,1.863333,18.285531,0.567867,0.1,0.116667,1.646667,0,0,0,0
5,21092030,2,pedestrian,7.1,7.6,38,784.912,986.8,3.363333,5.19326,0.291111,0,0.003333,0.003333,3.356667,0,4.757185,0
5,21092030,2,car,7.1,7.3,38,880.08,987.2,1.783333,12.124843,0.360377,0.246667,0.666667,0.87,0,0,0,0
5,21092030,2,car,7.1,7.3,38,872.972,988.2,1.92,11.261792,0.360377,0.266667,0.6,1.053333,0,0,0,0
5,21092030,2,pedestrian,7.3,7.4,38,473.835,995.2,8.686667,3.522312,0.509953,0,0,8.686667,0,0.345357,0,0
5,21092030,2,pedestrian,7.3,7.4,38,672.61,1000.6,5.463333,5.600457,0.509953,0.206667,0.123333,0.366667,4.766667,0,0,0
5,21092030,2,pedestrian,7.5,7.3,38,633.658,1001.4,6.126667,5.044412,0.515091,0.07,0.076667,0.293333,5.686667,0.761697,0,0
5,21092030,2,pedestrian,7.3,7.5,38,453.461,1008.2,9.243333,4.000356,0.616277,0,0,0.003333,9.24,1.009737,1.550667,0
5,21092030,2,pedestrian,7.1,7.5,38,691.771,1010,5.303333,4.555172,0.402627,0.1,0.086667,0.283333,4.833333,0.565682,6.222502,0
5,21092030,2,pedestrian,7.1,7.5,38,698.074,1012.2,5.233333,4.616044,0.402622,0.016667,0.033333,0.12,5.063333,0,7.324841,0
5,21092030,2,pedestrian,7.3,7.5,38,495.555,1022.2,8.776667,4.213061,0.616277,0.15,0.213333,1.03,7.383333,0.683631,0.341815,0
5,21092030,2,pedestrian,7.3,7.5,38,539.189,1024,8.08,4.576316,0.616277,0.22,0.103333,0.586667,7.17,0.618812,0.330033,0
5,21092030,2,pedestrian,7.5,7.3,38,653.729,1030.2,6.273333,4.926477,0.515091,0.023333,0.01,0.09,6.15,0.21254,3.825717,0
5,21092030,2,pedestrian,7.5,7.3,38,695.585,1032,5.606667,5.512264,0.51509,0.036667,0.066667,0.203333,5.3,0.237812,0,0
5,21092030,2,pedestrian,7.4,7.5,38,800.091,1045,4.08,5.454847,0.37093,0,0,0,4.08,0,0,0
5,21092030,2,pedestrian,7.6,7.1,38,648.721,1053.4,6.743333,3.744943,0.42089,0,0.003333,6.74,0,0,4.448838,0
5,21092030,2,pedestrian,7.3,7.1,38,614.512,1068.8,7.57,3.801748,0.479654,0,0,7.57,0,0.176134,0,0
5,21092030,2,pedestrian,7.5,7.1,38,605.41,1071.2,7.76,4.044742,0.52312,0.086667,0.113333,1.233333,6.326667,0.429553,0,0
5,21092030,2,pedestrian,7.4,7.1,38,618.77,1073.4,7.576667,4.3276,0.54648,0.136667,0.133333,0.356667,6.95,0,0,0
5,21092030,2,pedestrian,7.5,7.1,38,727.308,1103.8,6.273333,5.003273,0.52312,0,0,0,6.273333,0.53135,0.371945,0
5,21092030,2,pedestrian,7.6,7.3,38,694.132,1105,6.846667,4.423414,0.504761,0,0,0,6.846667,1.460565,8.471276,0
5,21092030,2,pedestrian,7.4,7.3,38,680.857,1107.2,7.103333,4.548149,0.53845,0.01,0.03,0.343333,6.72,0.093853,0,0
5,21092030,2,pedestrian,7.5,7.3,38,728.588,1109.2,6.343333,4.872112,0.515091,0.056667,0.113333,0.41,5.763333,0.945875,0.420389,0
5,21092030,2,pedestrian,7.5,7.3,38,811.889,1110.6,4.976667,6.210067,0.515091,0.213333,0.14,0.173333,4.45,0.200938,0.468855,0
5,21092030,2,pedestrian,7.5,7.3,38,849.706,1127,4.62,6.689488,0.515091,0,0,0,4.62,0.21645,0,0
5,21092030,2,pedestrian,7.1,7.6,38,871.083,1159.4,4.803333,3.636363,0.291111,0.853333,0.336667,0.426667,3.186667,0,2.151284,0
5,21092030,2,pedestrian,7.4,7.3,38,837.904,1171.4,5.556667,5.814101,0.53845,0,0.003333,0,5.553333,0.059988,0,0
5,21092030,2,pedestrian,7.5,7.1,38,853.705,1172.4,5.31,5.91096,0.52312,0.03,0.013333,0.013333,5.253333,0.125549,0,0
5,21092030,2,pedestrian,7.4,7.5,38,892.944,1184.2,4.853333,4.585672,0.37093,0,0.003333,0,4.85,0,0,0
5,21092030,2,pedestrian,7.3,7.4,38,811.884,1184.6,6.21,4.927065,0.509951,0,0.003333,0,6.206667,0.483092,0,0
5,21092030,2,pedestrian,7.6,7.3,38,855.653,1216.6,6.013333,5.036405,0.50476,0,0.003333,0,6.01,0,0.498891,0
5,21092030,2,pedestrian,7.5,7.1,38,863.742,1225.8,6.033333,5.202298,0.52312,0.046667,0.046667,0.236667,5.703333,0,0,0
5,21092030,2,pedestrian,7.5,7.1,38,866.645,1240.6,6.23,5.038073,0.52312,0.056667,0.053333,0.123333,5.996667,0,0,0
5,21092030,2,pedestrian,7.1,7.5,38,839.519,1271,7.19,3.359887,0.402626,0,0.003333,7.186667,0,0,8.576727,0
5,21092030,2,pedestrian,7.3,7.5,38,807.894,1271.8,7.73,4.783516,0.616276,0.446667,0.313333,0.763333,6.206667,0.603708,0,0
5,21092030,2,pedestrian,7.3,7.5,38,812.4,1274,7.69,4.808405,0.616277,0.213333,0.126667,0.303333,7.046667,0.346771,0,0
5,21092030,2,pedestrian,7.1,7.5,38,851.54,1276.6,7.083333,3.410493,0.402628,1.17,0.736667,1.006667,4.17,0,3.529412,0
5,21092030,2,pedestrian,7.1,7.5,38,857.729,1278,7.003333,3.449452,0.402628,1.656667,0.556667,1.183333,3.606667,0,10.090433,0
5,21092030,2,pedestrian,7.6,7.3,38,882.901,1318,7.25,4.177329,0.504761,0,0.003333,0,7.246667,0,0.367816,0
5,21092030,2,pedestrian,7.3,7.5,38,850.477,1322.6,7.866667,4.700419,0.616277,0,0.003333,0,7.863333,0.127119,0,0
