run_id,seed,demand_factor,mode,origin_zone,destination_zone,flow_slot,scheduled_spawn_time_s,arrival_time_s,trajectory_duration_min,average_speed_kmh,trajectory_distance_km,congestion_duration_min,low_speed_duration_min,intermediate_speed_duration_min,high_speed_duration_min,copresence_car_percentage,copresence_bike_percentage,copresence_pedestrian_percentage
7,21092032,2,pedestrian,7.6,7.5,38,30.522,101.6,1.183333,5.55344,0.109526,0,0,0,1.183333,0,0,0
7,21092032,2,bike,7.6,7.1,38,19.049,104.6,1.423333,9.182529,0.21783,0,0.62,0.803333,0,0,0,1.639344
7,21092032,2,bike,7.6,7.1,38,34.37,106,1.193333,10.952346,0.21783,0.036667,0.54,0.003333,0.613333,0,0,2.513966
7,21092032,2,bike,7.1,7.6,38,56.509,123.2,1.11,11.774594,0.21783,0,0.48,0.006667,0.623333,0,0,0
7,21092032,2,car,7.1,7.3,38,4.594,123.6,1.983333,18.195665,0.601468,0,0.003333,1.98,0,0,0,0
7,21092032,2,car,7.1,7.6,38,73.744,141.4,1.126667,20.044776,0.376396,0,0,1.126667,0,0,0,0
7,21092032,2,car,7.3,7.1,38,77.153,151.2,1.233333,13.317591,0.27375,0,1.233333,0,0,0,0,0
7,21092032,2,car,7.3,7.6,38,33.407,155.2,2.026667,17.635787,0.595698,0,0.003333,2.023333,0,0,0,0
7,21092032,2,pedestrian,7.6,7.5,38,58.479,156.4,1.63,4.031637,0.109526,0.123333,0.136667,0.176667,1.193333,0,0,0
7,21092032,2,bike,7.6,7.1,38,100.753,166.4,1.093333,11.954085,0.21783,0,0.473333,0.003333,0.616667,0,0,6.097561
7,21092032,2,bike,7.1,7.6,38,126.685,193.8,1.116667,11.704289,0.21783,0,0.483333,0.006667,0.626667,0,0,0.895522
7,21092032,2,car,7.1,7.6,38,97.217,206.8,1.823333,12.385985,0.376396,0,1.823333,0,0,0,0,0
7,21092032,2,car,7.1,7.6,38,133.228,207.4,1.233333,18.311174,0.376396,0,0.013333,1.22,0,0,0,0
7,21092032,2,car,7.5,7.6,38,159.644,212.6,0.88,18.571511,0.272382,0,0.003333,0.876667,0,0,0,0
7,21092032,2,car,7.1,7.3,38,98.464,214,1.923333,18.763305,0.601468,0.096667,0.156667,1.67,0,0,0,0
7,21092032,2,car,7.1,7.3,38,104.175,229,2.08,17.350016,0.601467,0.03,0.04,2.01,0,0,0,0
7,21092032,2,bike,7.1,7.6,38,162.987,230.6,1.126667,11.600413,0.21783,0,0.5,0.003333,0.623333,0,0,2.95858
7,21092032,2,bike,7.6,7.1,38,150.269,230.8,1.34,9.75358,0.21783,0.006667,0.583333,0.75,0,0,0,1.492537
7,21092032,2,pedestrian,7.6,7.4,38,57.263,233,2.926667,4.062797,0.198174,0,0.003333,0,2.923333,0,0,0
7,21092032,2,pedestrian,7.5,7.4,38,21.138,234.4,3.553333,5.027175,0.29772,0.286667,0.023333,0.216667,3.026667,0.281426,0,0
7,21092032,2,car,7.1,7.3,38,109.704,241.8,2.2,16.40368,0.601468,0,0.003333,2.196667,0,0,0,0
7,21092032,2,car,7.3,7.6,38,103.414,244.2,2.343333,15.252572,0.595698,0,0.003333,2.34,0,0,0,0
7,21092032,2,pedestrian,7.1,7.6,38,61.75,247.2,3.09,5.652643,0.291111,0,0.003333,0,3.086667,0,3.020496,0
7,21092032,2,pedestrian,7.6,7.4,38,96.118,250.2,2.566667,4.632644,0.198174,0,0,0.003333,2.563333,0,0,0
7,21092032,2,pedestrian,7.5,7.6,38,168.7,258,1.486667,4.420339,0.109526,0.003333,0.003333,0.16,1.32,0,0,0
7,21092032,2,bike,7.1,7.6,38,198.135,260.2,1.033333,12.648193,0.21783,0,0.45,0,0.583333,0,0,4.516129
7,21092032,2,car,7.1,7.3,38,127.707,269.4,2.36,15.291566,0.601468,0,0.003333,2.356667,0,0,0,0
7,21092032,2,car,7.3,7.1,38,223.036,272.6,0.823333,19.949427,0.27375,0,0.003333,0.82,0,0,0,0
7,21092032,2,pedestrian,7.5,7.6,38,174.523,273.6,1.65,3.982754,0.109526,0,0,1.65,0,0,0,0
7,21092032,2,car,7.1,7.3,38,162.388,278,1.926667,18.730846,0.601468,0,0.003333,1.923333,0,0,0,0
7,21092032,2,car,7.1,7.3,38,166.056,278.6,1.873333,19.264108,0.601468,0,0.093333,1.78,0,0,0,0
7,21092032,2,pedestrian,7.6,7.5,38,198.409,291.2,1.543333,4.258037,0.109526,0,0.003333,0,1.54,0,0,0
7,21092032,2,pedestrian,7.6,7.5,38,232.794,292.6,0.996667,6.593549,0.109526,0.023333,0.016667,0,0.956667,0,0,0
7,21092032,2,pedestrian,7.5,7.6,38,202.943,297,1.566667,4.19462,0.109526,0.086667,0.103333,0.44,0.936667,0,0,0
7,21092032,2,pedestrian,7.5,7.4,38,46.891,298.4,4.19,4.2633,0.29772,0.286667,0.193333,0.6,3.11,0,0,0
7,21092032,2,car,7.1,7.3,38,183.954,299.4,1.923333,18.763305,0.601468,0,0,1.923333,0,0,0,0
7,21092032,2,pedestrian,7.6,7.4,38,173.797,299.8,2.1,5.662121,0.198174,0.07,0.103333,0.153333,1.773333,0,0,0
7,21092032,2,pedestrian,7.5,7.6,38,203.02,299.8,1.61,4.081721,0.109526,0.096667,0.11,0.186667,1.216667,0,0,0
7,21092032,2,pedestrian,7.5,7.4,38,111.328,311.2,3.33,5.364333,0.29772,0,0.003333,0,3.326667,0,0,0
7,21092032,2,car,7.3,7.1,38,276.167,331.2,0.916667,17.918208,0.27375,0,0.003333,0.913333,0,0,0,0
7,21092032,2,pedestrian,7.6,7.3,38,20.458,335.2,5.243333,5.798907,0.50676,0,0,0,5.243333,1.716465,0,0
7,21092032,2,car,7.3,7.1,38,287.515,344.4,0.946667,17.350164,0.273747,0,0,0.946667,0,0,0,2.464789
7,21092032,2,pedestrian,7.4,7.5,38,83.285,354.2,4.513333,4.904662,0.36894,0,0,0,4.513333,0,0,0
7,21092032,2,bike,7.1,7.5,38,218.864,357.8,2.313333,10.944148,0.421958,0.173333,0.743333,0.123333,1.273333,0,0,9.510086
7,21092032,2,pedestrian,7.4,7.5,38,104.027,360,4.263333,5.192252,0.368938,0,0.003333,0,4.26,0,0.078186,0
7,21092032,2,car,7.1,7.3,38,194.038,365.6,2.856667,12.632921,0.601467,0,2.856667,0,0,0,0,0
7,21092032,2,car,7.1,7.3,38,212.464,366,2.556667,14.115292,0.601468,0.29,1.04,1.226667,0,0,0,0
7,21092032,2,car,7.1,7.3,38,214.035,366.8,2.543333,14.189291,0.601468,0.34,0.66,1.543333,0,0,0,0
7,21092032,2,car,7.1,7.3,38,206.126,367.4,2.686667,13.432294,0.601468,0.506667,0.596667,1.583333,0,0,0,0
7,21092032,2,car,7.6,7.3,38,193.251,368.2,2.913333,14.115106,0.685367,0.43,0.553333,1.93,0,0,0,0.457666
7,21092032,2,car,7.1,7.3,38,237.864,369.2,2.186667,16.503697,0.601468,0.003333,0.016667,2.166667,0,0,0,0
7,21092032,2,car,7.1,7.3,38,260.25,369.8,1.823333,19.792374,0.601468,0.056667,0.16,1.606667,0,0,0,0
7,21092032,2,bike,7.6,7.1,38,280.158,369.8,1.493333,8.752098,0.21783,0.066667,0.673333,0.753333,0,0,0,8.035714
7,21092032,2,pedestrian,7.5,7.6,38,290.312,384.4,1.566667,4.19462,0.109526,0,0.003333,0,1.563333,0,0,0
7,21092032,2,car,7.1,7.3,38,279.725,386.4,1.776667,20.312231,0.601468,0,0,1.776667,0,0,0,0
7,21092032,2,pedestrian,7.5,7.6,38,307.124,386.6,1.323333,4.965923,0.109526,0.086667,0.06,0.123333,1.053333,0,0,0
7,21092032,2,pedestrian,7.6,7.5,38,299.233,392.4,1.55,4.239723,0.109526,0.173333,0.126667,0.423333,0.826667,0,0,0
7,21092032,2,pedestrian,7.1,7.5,38,106.764,420.6,5.23,4.596221,0.400637,0,0.003333,0,5.226667,0,2.294455,0
7,21092032,2,pedestrian,7.1,7.5,38,111.948,422.6,5.176667,4.643574,0.400637,0.013333,0.03,0.233333,4.9,0,12.749517,0
7,21092032,2,pedestrian,7.1,7.5,38,131.633,424.8,4.883333,4.922488,0.400636,0.01,0.003333,0.073333,4.796667,0,7.167235,0
7,21092032,2,bike,7.6,7.1,38,346.755,427,1.336667,9.777905,0.21783,0.05,0.566667,0.003333,0.716667,0,0,8.478803
7,21092032,2,car,7.1,7.3,38,326.297,431,1.743333,20.700609,0.601468,0,0,1.743333,0,0,0,0.573614
7,21092032,2,bike,7.1,7.6,38,351.201,442.4,1.516667,8.61745,0.21783,0.266667,0.69,0.063333,0.496667,0,0,13.846154
7,21092032,2,car,7.1,7.3,38,330.714,443.8,1.883333,19.161821,0.601468,0,0.003333,1.88,0,0,0,0
7,21092032,2,car,7.3,7.1,38,369.13,444,1.246667,13.175142,0.27375,0,1.246667,0,0,0,0,1.336898
7,21092032,2,car,7.3,7.1,38,378.548,451.4,1.213333,13.537112,0.27375,0,1.213333,0,0,0,0,0
7,21092032,2,pedestrian,7.5,7.4,38,192.746,474.8,4.7,3.800521,0.297708,0,0,4.7,0,0,0,0
7,21092032,2,car,7.1,7.3,38,350.977,480.4,2.156667,16.733275,0.601468,0.006667,0.006667,2.143333,0,0,0,0.927357
7,21092032,2,car,7.1,7.3,38,377.557,481,1.723333,20.940868,0.601468,0,0.01,1.713333,0,0,0,0.580271
7,21092032,2,pedestrian,7.6,7.5,38,398.949,486,1.45,4.532118,0.109526,0,0,0.003333,1.446667,0,0,0
7,21092032,2,pedestrian,7.6,7.5,38,413.974,489,1.25,5.257257,0.109526,0,0,0.003333,1.246667,0,0,0
7,21092032,2,bike,7.1,7.6,38,418.372,500.4,1.366667,9.563268,0.21783,0.183333,0.65,0.133333,0.4,0,0,9.02439
7,21092032,2,pedestrian,7.6,7.3,38,102.844,500.8,6.63,4.586064,0.50676,0,0,0.003333,6.626667,1.608849,1.00553,0
7,21092032,2,bike,7.1,7.6,38,435.04,501.2,1.1,11.881631,0.21783,0.03,0.483333,0.023333,0.563333,0,0,2.121212
7,21092032,2,pedestrian,7.5,7.4,38,264.251,503.8,3.99,4.477,0.29772,0,0.003333,0,3.986667,0,0,0
7,21092032,2,pedestrian,7.4,7.3,38,124.07,510,6.43,5.043077,0.54045,0,0,0.003333,6.426667,1.140487,0,0
7,21092032,2,pedestrian,7.5,7.4,38,267.704,512.4,4.076667,4.381822,0.29772,0,0,0.003333,4.073333,0,0,0
7,21092032,2,bike,7.6,7.1,38,418.635,512.8,1.566667,8.342351,0.217828,0.21,0.736667,0.16,0.46,0,0,13.617021
7,21092032,2,pedestrian,7.5,7.4,38,310.981,514,3.383333,5.279772,0.29772,0.17,0.09,0.16,2.963333,0,0,0
7,21092032,2,pedestrian,7.6,7.5,38,425.058,514.2,1.483333,4.430272,0.109526,0,0,0.003333,1.48,0,0,0
7,21092032,2,pedestrian,7.5,7.4,38,313.055,515.8,3.376667,5.290196,0.29772,0.133333,0.1,0.11,3.033333,0,0,0
7,21092032,2,pedestrian,7.5,7.4,38,317.215,517.6,3.336667,5.353615,0.29772,0.19,0.056667,0.13,2.96,0,0,0
7,21092032,2,car,7.3,7.1,38,468.974,517.6,0.81,20.277813,0.27375,0,0,0.81,0,0,0,0
7,21092032,2,pedestrian,7.1,7.4,38,256.906,520,4.383333,5.313808,0.388203,0.013333,0.006667,0.006667,4.356667,0,0,0
7,21092032,2,car,7.3,7.1,38,477.194,520.6,0.723333,22.707413,0.27375,0,0.003333,0.72,0,0,0,0
7,21092032,2,car,7.1,7.3,38,390.08,527.4,2.286667,15.781966,0.601468,0,0.003333,2.283333,0,0,0,0.58309
7,21092032,2,bike,7.1,7.6,38,448.73,534.2,1.423333,9.182529,0.21783,0.05,0.656667,0.033333,0.683333,0,0,2.34192
7,21092032,2,bike,7.1,7.6,38,450.111,535,1.413333,9.247463,0.217829,0.106667,0.64,0.136667,0.53,0,0,2.122642
7,21092032,2,car,7.3,7.6,38,340.186,538.8,3.31,10.798144,0.595698,0,3.31,0,0,0,0.20141,0.302115
7,21092032,2,bike,7.1,7.6,38,448.854,546,1.616667,8.084412,0.21783,0.186667,0.743333,0.08,0.606667,0,0,10.927835
7,21092032,2,car,7.1,7.3,38,412.699,551.8,2.316667,15.577593,0.601468,0,0.003333,2.313333,0,0,0,0.57554
7,21092032,2,car,7.1,7.3,38,423.699,552.6,2.146667,16.811219,0.601468,0.013333,0.046667,2.086667,0,0,0,0
7,21092032,2,pedestrian,7.6,7.5,38,475.221,554.6,1.32,4.978463,0.109526,0,0,0.003333,1.316667,0,0,0
7,21092032,2,pedestrian,7.5,7.1,38,134.529,557,7.04,4.520591,0.530416,0,0,0.003333,7.036667,0,2.225379,0
7,21092032,2,pedestrian,7.5,7.1,38,161.101,558.8,6.626667,4.80256,0.530416,0.153333,0.233333,0.623333,5.616667,0,9.45674,0
7,21092032,2,pedestrian,7.3,7.6,38,110.303,559.4,7.483333,4.047079,0.504761,0,0.003333,0,7.48,1.55902,1.380846,0
7,21092032,2,pedestrian,7.3,7.6,38,214.985,561.2,5.77,5.248811,0.504761,0.19,0.126667,0.16,5.293333,1.848642,7.68342,0
7,21092032,2,pedestrian,7.3,7.6,38,203.689,563,5.986667,5.058846,0.50476,0.423333,0.136667,0.146667,5.28,1.280624,5.233853,0
7,21092032,2,pedestrian,7.5,7.6,38,483.722,568.2,1.406667,4.671732,0.109526,0.063333,0.053333,0.223333,1.066667,0,0,0
7,21092032,2,pedestrian,7.1,7.4,38,287.911,574.8,4.78,4.872844,0.388203,0,0,0,4.78,0.488145,0,0
7,21092032,2,pedestrian,7.5,7.4,38,393.962,576.6,3.043333,5.869626,0.29772,0.036667,0.016667,0.123333,2.866667,0,0,0
7,21092032,2,pedestrian,7.1,7.4,38,298.401,578.4,4.663333,4.994752,0.388203,0.17,0.103333,0.64,3.75,1.215154,0,0
7,21092032,2,car,7.1,7.3,38,447.674,579,2.186667,16.503702,0.601468,0,0.003333,2.183333,0,0,0,0
7,21092032,2,pedestrian,7.3,7.4,38,239.623,580.6,5.68,5.386825,0.509953,0,0,0.003333,5.676667,1.349765,0,0
7,21092032,2,pedestrian,7.1,7.3,38,319.225,581.6,4.37,4.831226,0.351874,0,0.003333,0,4.366667,2.135774,0.762777,0
7,21092032,2,pedestrian,7.3,7.6,38,251.459,592.4,5.68,5.331927,0.504756,0,0,0,5.68,1.232394,7.453052,0
7,21092032,2,pedestrian,7.4,7.6,38,423.472,597.4,2.896667,5.373349,0.259413,0,0.003333,0,2.893333,0.575374,0,0
7,21092032,2,pedestrian,7.4,7.1,38,151.242,600.4,7.483333,4.381575,0.54648,0.01,0.01,0.003333,7.46,1.42539,1.336303,0
7,21092032,2,car,7.1,7.6,38,497.19,602,1.746667,12.929646,0.376396,0,1.746667,0,0,0,0,0
7,21092032,2,car,7.1,7.6,38,519.745,602.6,1.38,16.365059,0.376396,0.13,0.426667,0.823333,0,0,0,0.241546
7,21092032,2,car,7.3,7.6,38,453.752,603.6,2.496667,14.315772,0.595695,0.066667,0.32,2.11,0,0,0,0.534045
7,21092032,2,bike,7.5,7.1,38,428.187,607.2,2.983333,8.486297,0.421958,0,0.78,2.203333,0,1.117318,0,3.240223
7,21092032,2,pedestrian,7.5,7.1,38,163.066,612.8,7.493333,4.247105,0.530416,0,0,0.003333,7.49,0,2.846975,0
7,21092032,2,pedestrian,7.5,7.6,38,528.111,612.8,1.41,4.660689,0.109526,0,0,0,1.41,0,0,0
7,21092032,2,pedestrian,7.3,7.5,38,82.811,615.6,8.876667,4.152097,0.61428,1.366667,0.65,1.28,5.58,0.826136,6.496433,0
7,21092032,2,bike,7.1,7.6,38,535.815,618.2,1.37,9.539999,0.21783,0.003333,0.596667,0.77,0,0,0,10.948905
7,21092032,2,pedestrian,7.3,7.5,38,32.405,623.8,9.853333,3.740581,0.614287,0.053333,0.013333,9.786667,0,0.575101,1.014885,0
7,21092032,2,pedestrian,7.3,7.5,38,60.309,625.8,9.423333,3.911271,0.614287,0.52,0.34,2.243333,6.32,0.672091,1.627167,0
7,21092032,2,pedestrian,7.1,7.4,38,331.597,626,4.906667,4.74705,0.388203,0,0.003333,0,4.903333,1.358696,2.241848,0
7,21092032,2,pedestrian,7.1,7.5,38,366.965,627.4,4.34,5.538764,0.400637,0.48,0.103333,0.346667,3.41,0,6.144393,0
7,21092032,2,car,7.1,7.3,38,474.76,629.4,2.576667,14.0055,0.601458,0,2.576667,0,0,0,0,0.646831
7,21092032,2,car,7.1,7.3,38,512.019,630,1.963333,18.381033,0.601468,0.003333,0.026667,1.933333,0,0,0,0.339559
7,21092032,2,pedestrian,7.6,7.5,38,542.356,630.4,1.466667,4.480616,0.109526,0.01,0.01,0.003333,1.443333,0,0,0
7,21092032,2,bike,7.1,7.6,38,589.599,663.8,1.236667,10.568571,0.21783,0.153333,0.536667,0.123333,0.423333,0,0,17.520216
7,21092032,2,car,7.1,7.3,38,567.015,680.8,1.893333,19.060612,0.601468,0,0.003333,1.89,0,0,0,0
7,21092032,2,pedestrian,7.6,7.5,38,606.237,685.2,1.313333,5.003734,0.109526,0,0.003333,0,1.31,0,0,0
7,21092032,2,pedestrian,7.5,7.4,38,417.45,691.2,4.56,3.917375,0.29772,0,0,4.56,0,0,0,0
7,21092032,2,pedestrian,7.6,7.5,38,617.853,693,1.25,5.257243,0.109526,0,0.003333,0,1.246667,0,0,0
7,21092032,2,pedestrian,7.5,7.4,38,419.376,693.6,4.57,3.908803,0.29772,0.026667,0.05,2.063333,2.43,0,0,0
7,21092032,2,pedestrian,7.1,7.6,38,424.489,694,4.49,3.890126,0.291111,0,0.003333,4.486667,0,0,3.860431,0
7,21092032,2,pedestrian,7.5,7.4,38,426.483,695.4,4.48,3.987328,0.29772,0.633333,0.356667,0.753333,2.736667,0,0,0
7,21092032,2,pedestrian,7.5,7.1,38,217.569,700,8.04,3.958329,0.530416,0.006667,0.006667,8.026667,0,0,1.824212,0
7,21092032,2,pedestrian,7.5,7.1,38,277.304,701.8,7.073333,4.499289,0.530416,0.403333,0.29,1.356667,5.023333,0,1.979265,0
7,21092032,2,pedestrian,7.6,7.1,38,362.665,703.6,5.68,4.446018,0.42089,0.776667,0.276667,0.633333,3.993333,0,2.406103,0
7,21092032,2,pedestrian,7.6,7.5,38,619.441,704.2,1.41,4.660689,0.109526,0,0,0,1.41,0,0,0
7,21092032,2,pedestrian,7.5,7.1,38,298.496,706,6.79,4.687036,0.530416,0.263333,0.156667,0.246667,6.123333,0,5.547374,0
7,21092032,2,pedestrian,7.5,7.4,38,463.859,711.8,4.13,4.325237,0.29772,0,0,0.003333,4.126667,0,0,0
7,21092032,2,pedestrian,7.5,7.4,38,480.648,715.4,3.91,4.568598,0.29772,0,0,0,3.91,0,0,0
7,21092032,2,car,7.1,7.3,38,577.456,723,2.423333,14.891924,0.601468,0,2.423333,0,0,0,0,0
7,21092032,2,pedestrian,7.5,7.3,38,43.167,724.2,11.35,3.257901,0.616286,0,0,11.35,0,1.174743,0.352423,0
7,21092032,2,pedestrian,7.5,7.3,38,98.983,725.2,10.436667,3.543005,0.616286,1.51,0.856667,2.683333,5.386667,1.277547,0.511019,0
7,21092032,2,pedestrian,7.5,7.4,38,517.007,725.4,3.47,5.147905,0.29772,0.16,0.093333,0.376667,2.84,0,0,0
7,21092032,2,car,7.1,7.3,38,605.482,726.6,2.016667,17.894924,0.601468,0,0.003333,2.013333,0,0,0,0
7,21092032,2,car,7.1,7.3,38,621.932,727,1.75,20.621741,0.601467,0.023333,0.19,1.536667,0,0,0,0
7,21092032,2,car,7.1,7.3,38,623.593,727.6,1.733333,20.820055,0.601468,0,0.07,1.663333,0,0,0,0
7,21092032,2,pedestrian,7.5,7.3,38,135.499,727.8,9.87,3.746421,0.616286,0.876667,0.626667,2.056667,6.31,1.317123,0.911854,0
7,21092032,2,pedestrian,7.6,7.3,38,191.304,731.8,9.006667,3.375899,0.50676,0.35,0.506667,8.15,0,1.96151,3.071799,0
7,21092032,2,pedestrian,7.5,7.3,38,170.629,733.4,9.376667,3.943531,0.616286,1.05,0.473333,1.48,6.373333,1.030928,0.426591,0
7,21092032,2,pedestrian,7.3,7.1,38,348.504,735,6.44,4.468824,0.479654,0,0,0,6.44,1.915114,0,0
7,21092032,2,pedestrian,7.1,7.4,38,481.236,738.8,4.29,5.429416,0.388203,0.023333,0.01,0.003333,4.253333,0.699301,1.631702,0
7,21092032,2,bike,7.6,7.1,38,644.358,745.2,1.68,7.779642,0.21783,0.146667,0.89,0.08,0.563333,0,0,6.547619
7,21092032,2,bike,7.6,7.1,38,670.05,746.4,1.27,10.29118,0.21783,0.133333,0.563333,0.05,0.523333,0,0,13.648294
7,21092032,2,car,7.3,7.1,38,706.971,752.2,0.753333,21.80276,0.273746,0,0,0.753333,0,0,0,1.327434
7,21092032,2,pedestrian,7.6,7.4,38,612.337,752.6,2.336667,5.088638,0.198174,0,0.003333,0,2.333333,0,0,0
7,21092032,2,pedestrian,7.5,7.3,38,285.291,757.6,7.87,4.698497,0.616286,0,0.003333,0,7.866667,0.211775,5.294367,0
7,21092032,2,car,7.6,7.1,38,710.688,760.8,0.833333,21.202008,0.294472,0,0.003333,0.83,0,0,0,0
7,21092032,2,bike,7.1,7.6,38,691.818,770,1.3,10.053692,0.21783,0.07,0.606667,0.073333,0.55,0,0,15.897436
7,21092032,2,pedestrian,7.6,7.5,38,677.641,773,1.586667,4.141746,0.109526,0.056667,0,0.006667,1.523333,0,0,0
7,21092032,2,pedestrian,7.3,7.1,38,413.274,774.6,6.02,4.780576,0.479651,0,0,0,6.02,0.332226,0,0
7,21092032,2,pedestrian,7.6,7.5,38,695.812,775,1.316667,4.991066,0.109526,0.003333,0,0.03,1.283333,0,0,0
7,21092032,2,bike,7.6,7.1,38,717.467,775.8,0.97,13.474016,0.21783,0,0.42,0.003333,0.546667,0,0,6.185567
7,21092032,2,bike,7.1,7.6,38,699.2,784.6,1.423333,9.182529,0.21783,0.11,0.693333,0.083333,0.536667,0,0,13.583138
7,21092032,2,pedestrian,7.5,7.6,38,699.732,791.2,1.523333,4.313941,0.109526,0,0.003333,0,1.52,0,0,0
7,21092032,2,car,7.5,7.3,38,555.055,801,4.096667,11.848026,0.808957,0,4.096667,0,0,0,0,0.732303
7,21092032,2,car,7.1,7.3,38,671.754,801.4,2.16,16.707447,0.601468,0.126667,0.593333,1.44,0,0,0,0
7,21092032,2,pedestrian,7.5,7.4,38,591.749,804.6,3.546667,5.036625,0.29772,0.196667,0.113333,0.22,3.016667,0,0,0
7,21092032,2,car,7.3,7.1,38,751.332,805.4,0.9,18.250032,0.27375,0,0.003333,0.896667,0,0,0,0
7,21092032,2,pedestrian,7.5,7.4,38,579.636,806.2,3.773333,4.734071,0.29772,0.343333,0.123333,0.406667,2.9,0,0,0
7,21092032,2,car,7.1,7.6,38,729.05,808.2,1.316667,17.152239,0.376396,0,0.003333,1.313333,0,0,0,0.759494
7,21092032,2,pedestrian,7.5,7.1,38,420.464,814.2,6.56,4.851354,0.530415,0.143333,0.1,0.323333,5.993333,0,1.067073,0
7,21092032,2,pedestrian,7.3,7.5,38,317.888,814.4,8.273333,4.454929,0.614285,0,0.01,0.103333,8.16,1.168413,5.721193,0
7,21092032,2,pedestrian,7.6,7.5,38,732.765,816.4,1.393333,4.716438,0.109526,0.016667,0.023333,0.05,1.303333,0,0,0
7,21092032,2,pedestrian,7.3,7.4,38,349.595,822,7.873333,3.886168,0.509952,0.02,0,7.853333,0,2.624894,0,0
7,21092032,2,pedestrian,7.3,7.4,38,365.92,823.8,7.63,4.010113,0.509953,0.76,0.466667,1.99,4.413333,0.742682,0,0
7,21092032,2,pedestrian,7.1,7.3,38,561.547,826.4,4.413333,4.783754,0.351872,0,0.003333,0,4.41,0.528701,1.586103,0
7,21092032,2,pedestrian,7.5,7.1,38,441.517,835.2,6.56,4.851368,0.530416,0.116667,0.043333,0.283333,6.116667,0,1.321138,0
7,21092032,2,car,7.1,7.3,38,691.023,840.4,2.486667,14.512639,0.601468,0,2.486667,0,0,0,0,0
7,21092032,2,car,7.1,7.3,38,691.062,841,2.496667,14.454504,0.601468,0.143333,1.083333,1.27,0,0,0,0.133511
7,21092032,2,pedestrian,7.3,7.6,38,454.907,845,6.5,4.659329,0.504761,0.15,0.136667,0.716667,5.496667,1.435897,6.615385,0
7,21092032,2,car,7.1,7.6,38,777.202,846.8,1.156667,19.524883,0.376396,0,0.003333,1.153333,0,0,0,0.576369
7,21092032,2,pedestrian,7.5,7.4,38,627.152,850,3.713333,4.810563,0.29772,0,0.003333,0,3.71,0,0,0
7,21092032,2,pedestrian,7.5,7.6,38,752.683,855.2,1.706667,3.85053,0.109526,0.136667,0.093333,0.38,1.096667,0,0,0
7,21092032,2,car,7.1,7.3,38,763.92,856,1.533333,23.535715,0.601468,0,0.003333,1.53,0,0,0,0
7,21092032,2,car,7.3,7.1,38,816.197,866,0.83,19.789191,0.27375,0,0.003333,0.826667,0,0,0,0
7,21092032,2,car,7.1,7.6,38,789.687,866.4,1.276667,17.689646,0.376396,0.046667,0.093333,1.136667,0,0,0,0
7,21092032,2,pedestrian,7.3,7.5,38,356.729,867.8,8.516667,4.327655,0.614287,0.286667,0.45,1.836667,5.943333,2.387476,0.547945,0
7,21092032,2,pedestrian,7.1,7.5,38,548.149,870.2,5.366667,4.479163,0.400636,0.056667,0.09,0.116667,5.103333,0,2.795031,0
7,21092032,2,pedestrian,7.6,7.5,38,788.314,871.8,1.39,4.727749,0.109526,0.14,0.04,0.083333,1.126667,0,0,0
7,21092032,2,pedestrian,7.1,7.5,38,586.591,874.2,4.793333,5.014931,0.400637,0.04,0.016667,0.026667,4.71,0.139082,6.189152,0
7,21092032,2,car,7.1,7.6,38,823.973,884.8,1.013333,22.286081,0.376387,0,0.003333,1.01,0,0,0,1.973684
7,21092032,2,pedestrian,7.5,7.1,38,460.081,885.4,7.086667,4.490824,0.530416,0.033333,0.003333,0.006667,7.043333,0,3.104421,0
7,21092032,2,pedestrian,7.5,7.4,38,630.903,888.8,4.296667,4.157439,0.297719,0,0,0.003333,4.293333,0,10.705974,0
7,21092032,2,bike,7.1,7.6,38,805.975,911.4,1.756667,7.440113,0.21783,0.116667,0.816667,0.823333,0,0,0,14.990512
7,21092032,2,car,7.5,7.1,38,818.521,912,1.556667,16.114029,0.41807,0,0.003333,1.553333,0,0,0,1.070664
7,21092032,2,bike,7.1,7.6,38,833.067,914,1.346667,9.705296,0.21783,0,0.586667,0.76,0,0,0,8.415842
7,21092032,2,car,7.1,7.3,38,782.766,915,2.203333,16.378851,0.601468,0,0.003333,2.2,0,0,0,0
7,21092032,2,car,7.3,7.1,38,851.966,915.8,1.063333,15.446735,0.27375,0,0.006667,1.056667,0,0,0,1.567398
7,21092032,2,car,7.3,7.1,38,864.029,917.8,0.893333,18.386225,0.27375,0,0.003333,0.89,0,0,0,0
7,21092032,2,pedestrian,7.6,7.5,38,828.056,922.8,1.576667,4.168015,0.109526,0,0.003333,0,1.573333,0,0,0
7,21092032,2,car,7.1,7.3,38,784.332,925.2,2.346667,15.378408,0.601467,0,0.003333,2.343333,0,0,0,0
7,21092032,2,pedestrian,7.5,7.3,38,429.292,929.2,8.33,4.439035,0.616286,0.08,0.063333,0.106667,8.08,1.240496,0.240096,0
7,21092032,2,pedestrian,7.5,7.3,38,429.528,931.2,8.36,4.423096,0.616285,0.206667,0.1,0.81,7.243333,1.435407,0.478469,0
7,21092032,2,pedestrian,7.1,7.6,38,744.722,932.6,3.13,5.580404,0.291111,0.013333,0.03,0.073333,3.013333,0.532481,12.779553,0
7,21092032,2,pedestrian,7.5,7.6,38,840.588,932.8,1.536667,4.27651,0.109526,0,0,0.003333,1.533333,0.433839,0,0
7,21092032,2,car,7.1,7.5,38,861.832,932.8,1.18,20.52069,0.403574,0,0.003333,1.176667,0,0,0,0
7,21092032,2,pedestrian,7.6,7.3,38,533.337,935.2,6.696667,4.540331,0.506751,0,0,0,6.696667,1.891488,0.895968,0
7,21092032,2,pedestrian,7.1,7.3,38,686.571,936.6,4.166667,5.06699,0.351874,0.1,0.066667,0.393333,3.606667,1.2,0,0
7,21092032,2,pedestrian,7.6,7.5,38,840.206,937.8,1.623333,4.048195,0.109526,0,0,0.003333,1.62,0,0,0
7,21092032,2,pedestrian,7.4,7.1,38,563.702,941,6.286667,5.215608,0.54648,0,0,0.003333,6.283333,0,0,0
7,21092032,2,bike,7.5,7.1,38,824.433,941.8,1.953333,12.961158,0.421958,0.126667,0.61,0.123333,1.093333,0,0,3.583618
7,21092032,2,pedestrian,7.3,7.5,38,434.852,942.4,8.456667,4.358337,0.614283,0.06,0.056667,0.24,8.1,1.537249,0.630666,0
7,21092032,2,pedestrian,7.3,7.5,38,509.964,944.2,7.236667,5.09312,0.614287,0.21,0.173333,0.35,6.503333,1.289728,0,0
7,21092032,2,car,7.1,7.3,38,787.493,944.8,2.62,13.774042,0.601467,0,2.62,0,0,0,0,0
7,21092032,2,car,7.1,7.3,38,791.274,945.4,2.566667,14.060261,0.601467,0.13,1.003333,1.433333,0,0,0,0
7,21092032,2,pedestrian,7.5,7.4,38,655.826,949.4,4.89,3.653012,0.29772,0.02,0.086667,4.783333,0,0,0,0
7,21092032,2,pedestrian,7.6,7.4,38,799.324,951.6,2.536667,4.687432,0.198174,0.003333,0.006667,0.036667,2.49,0,0,0
7,21092032,2,car,7.3,7.6,38,823.039,956.4,2.22,16.099938,0.595698,0,0.003333,2.216667,0,0,0,0
7,21092032,2,pedestrian,7.4,7.5,38,631.458,966.8,5.586667,3.962358,0.36894,0,0,5.586667,0,0.596659,0,0
7,21092032,2,pedestrian,7.6,7.3,38,570.536,967.6,6.616667,4.595305,0.50676,0,0,0,6.616667,1.511335,0.856423,0
7,21092032,2,pedestrian,7.4,7.5,38,670.383,969,4.976667,4.448032,0.36894,0.156667,0.21,0.806667,3.803333,1.138647,0,0
7,21092032,2,pedestrian,7.4,7.5,38,696.349,978.6,4.703333,4.706529,0.36894,0,0,0.003333,4.7,0.850461,0,0
7,21092032,2,car,7.5,7.1,38,877.96,981,1.716667,14.612139,0.41807,0,1.716667,0,0,0,0,0
7,21092032,2,pedestrian,7.6,7.3,38,618.657,981.8,6.05,5.025719,0.50676,0.13,0.046667,0.19,5.683333,0.606061,9.807163,0
7,21092032,2,pedestrian,7.5,7.3,38,550.538,983.6,7.216667,5.123858,0.616286,0.14,0.083333,0.25,6.743333,0.461894,2.401848,0
7,21092032,2,pedestrian,7.5,7.6,38,889.57,985,1.59,4.133063,0.109526,0,0,0.003333,1.586667,0,0,0
7,21092032,2,bike,7.1,7.6,38,888.317,989.6,1.686667,7.748893,0.21783,0.296667,0.763333,0.213333,0.413333,0,0,12.648221
7,21092032,2,bike,7.1,7.6,38,868.228,990.6,2.036667,6.41725,0.21783,0.513333,0.87,0.233333,0.42,0,0,6.873977
7,21092032,2,pedestrian,7.1,7.4,38,645.15,992.2,5.783333,4.027469,0.388203,0,0.003333,0,5.78,0,0,0
7,21092032,2,bike,7.1,7.6,38,864.709,993,2.136667,6.116911,0.21783,0.586667,0.85,0.23,0.47,0,0,12.324493
7,21092032,2,bike,7.1,7.6,38,898.892,999,1.666667,7.841879,0.21783,0.196667,0.803333,0.07,0.596667,0,0,13
7,21092032,2,pedestrian,7.1,7.5,38,735.179,1004.4,4.486667,5.357705,0.400637,0,0.003333,0,4.483333,0,1.040119,0
7,21092032,2,pedestrian,7.5,7.4,38,723.719,1005.6,4.696667,3.803384,0.29772,0.35,0.273333,0.976667,3.096667,0,0,0
7,21092032,2,pedestrian,7.4,7.3,38,589.902,1012.8,7.046667,4.601748,0.54045,0,0.003333,0,7.043333,0.425733,0,0
7,21092032,2,pedestrian,7.5,7.1,38,501.43,1016,8.573333,3.712088,0.530416,0,0,8.573333,0,0,3.499222,0
7,21092032,2,pedestrian,7.5,7.1,38,544.338,1018,7.893333,4.031877,0.530416,0.433333,0.473333,1.81,5.176667,0,6.967905,0
7,21092032,2,pedestrian,7.6,7.3,38,667.383,1019.2,5.863333,5.185716,0.50676,0,0,0.003333,5.86,2.671973,1.13701,0
7,21092032,2,pedestrian,7.5,7.1,38,569.132,1019.8,7.51,4.237617,0.530408,0.796667,0.356667,1.263333,5.093333,0,2.840657,0
7,21092032,2,pedestrian,7.5,7.1,38,643.653,1021.6,6.296667,5.054257,0.530416,0.576667,0.233333,0.41,5.076667,0,3.493912,0
7,21092032,2,pedestrian,7.5,7.1,38,634.631,1023.6,6.48,4.91126,0.530416,0.39,0.116667,0.276667,5.696667,0,3.292181,0
7,21092032,2,pedestrian,7.5,7.1,38,613.74,1025.6,6.863333,4.636956,0.530416,0.593333,0.156667,0.61,5.503333,0,3.351141,0
7,21092032,2,pedestrian,7.5,7.4,38,812.4,1037.2,3.743333,4.772011,0.29772,0.006667,0.016667,0.163333,3.556667,0,0,0
7,21092032,2,pedestrian,7.1,7.4,38,768.684,1056,4.786667,4.866057,0.388203,0,0.006667,0,4.78,0,0.139276,0
7,21092032,2,pedestrian,7.4,7.5,38,812.565,1057.6,4.083333,5.421152,0.36894,0,0,0,4.083333,0,0,0
7,21092032,2,bike,7.1,7.5,38,859.514,1068.4,3.48,7.27513,0.421958,0.216667,0.99,2.273333,0,0,0,6.51341
7,21092032,2,pedestrian,7.1,7.5,38,761.07,1112.2,5.85,4.109099,0.400637,0,0,0.003333,5.846667,0,1.025641,0
7,21092032,2,pedestrian,7.1,7.5,38,785.202,1113.6,5.47,4.394559,0.400637,0.793333,0.446667,0.056667,4.173333,0,12.492383,0
7,21092032,2,pedestrian,7.1,7.5,38,822.435,1115.8,4.886667,4.919148,0.400637,0.326667,0.14,0.136667,4.283333,0,13.847203,0
7,21092032,2,pedestrian,7.1,7.4,38,848.36,1136.4,4.8,4.85254,0.388203,0,0.003333,0,4.796667,0,0,0
7,21092032,2,pedestrian,7.1,7.4,38,853.214,1138,4.743333,4.910512,0.388203,0.163333,0.103333,0.753333,3.723333,0,0,0
7,21092032,2,pedestrian,7.1,7.5,38,855.551,1199.6,5.733333,4.192716,0.400637,0.01,0.003333,0,5.72,0,2.965116,0
7,21092032,2,pedestrian,7.1,7.5,38,893.899,1201.4,5.123333,4.691913,0.400637,0.166667,0.22,0.333333,4.403333,0,0.650618,0
7,21092032,2,pedestrian,7.5,7.1,38,650.588,1229,9.64,3.301338,0.530415,0,0.003333,9.636667,0,0,0.968188,0
7,21092032,2,pedestrian,7.6,7.1,38,825.571,1230.4,6.746667,3.743084,0.420889,1.873333,0.06,2.156667,2.656667,0.34585,1.136364,0
7,21092032,2,pedestrian,7.3,7.5,38,666.655,1242.8,9.6,3.839293,0.614287,0,0,9.6,0,1.180556,0,0
7,21092032,2,pedestrian,7.3,7.5,38,776.234,1244.6,7.803333,4.723264,0.614287,0.426667,0.236667,1.3,5.84,0.640752,0,0
7,21092032,2,pedestrian,7.1,7.3,38,875.311,1253.2,6.296667,3.352958,0.351874,0,0.003333,6.293333,0,0,0,0
7,21092032,2,pedestrian,7.5,7.3,38,552.888,1292.6,12.326667,2.999768,0.616286,0,0,12.326667,0,0.3245,0.405625,0
7,21092032,2,pedestrian,7.5,7.3,38,570.66,1294.2,12.056667,3.066948,0.616286,1.526667,1.526667,2.93,6.073333,0.248825,0.525297,0
7,21092032,2,pedestrian,7.5,7.3,38,661.463,1296,10.573333,3.49721,0.616286,1.613333,0.83,2.023333,6.106667,0.315259,0.37831,0
7,21092032,2,pedestrian,7.4,7.3,38,896.12,1298,6.696667,4.842257,0.54045,0.29,0.086667,0.176667,6.143333,0,0,0
7,21092032,2,pedestrian,7.6,7.3,38,750.983,1299.4,9.14,3.326652,0.50676,2.61,0.496667,1.45,4.583333,0.291758,0.255288,0
7,21092032,2,pedestrian,7.5,7.1,38,718.089,1354.8,10.61,2.999518,0.530415,0,0.003333,10.606667,0,0,1.131008,0
7,21092032,2,pedestrian,7.5,7.1,38,829.706,1356.6,8.78,3.624712,0.530416,2.12,0.536667,1.126667,4.996667,0,0.835232,0
7,21092032,2,pedestrian,7.5,7.1,38,874.653,1358.2,8.056667,3.950141,0.530416,1.953333,0.146667,1.32,4.636667,0,1.448076,0
7,21092032,2,pedestrian,7.3,7.6,38,889.306,1360,7.843333,3.861306,0.504758,0.213333,0.28,1.756667,5.593333,0.254994,0,0
7,21092032,2,pedestrian,7.5,7.1,38,896.888,1361.8,7.746667,4.108215,0.530416,0.143333,0.043333,0.196667,7.363333,0,0,0
7,21092032,2,pedestrian,7.5,7.1,38,890.712,1363.6,7.88,4.038702,0.530416,1.06,0.233333,0.626667,5.96,0,0,0
7,21092032,2,pedestrian,7.5,7.1,38,774.146,1365.4,9.853333,3.229869,0.530416,2.523333,0.733333,2.196667,4.4,0.202977,1.116373,0
7,21092032,2,pedestrian,7.5,7.3,38,733.154,1367.8,10.576667,3.496089,0.616283,0.16,0.26,10.156667,0,0,1.292153,0
7,21092032,2,pedestrian,7.5,7.1,38,805.704,1368.6,9.38,3.392854,0.530416,1.663333,0.493333,0.536667,6.686667,0,0.497512,0
7,21092032,2,pedestrian,7.5,7.3,38,808.455,1369,9.34,3.959012,0.616286,1.216667,0.736667,1.893333,5.493333,0,0.571021,0
7,21092032,2,pedestrian,7.5,7.3,38,818.128,1371.2,9.216667,4.011989,0.616286,1.086667,0.506667,0.96,6.663333,0.180832,0.687161,0
7,21092032,2,pedestrian,7.5,7.3,38,795.359,1373.4,9.633333,3.838459,0.616286,1.276667,0.546667,1.16,6.65,0,1.314879,0
7,21092032,2,pedestrian,7.5,7.3,38,765.273,1375.4,10.166667,3.63708,0.616283,1.833333,0.58,1.606667,6.146667,0.229508,1.213115,0
7,21092032,2,pedestrian,7.3,7.6,38,896.328,1392,8.26,3.666542,0.504761,0,0,8.26,0,0.161421,0,0
7,21092032,2,pedestrian,7.5,7.3,38,890.441,1399.6,8.483333,4.358725,0.616275,0.08,0.013333,0.253333,8.136667,0,0,0
7,21092032,2,pedestrian,7.3,7.5,38,863.482,1464.8,10.02,3.678364,0.614287,0,0,10.02,0,0.299401,0,0
7,21092032,2,pedestrian,7.5,7.3,38,898.539,1566.6,11.133333,3.321302,0.616286,0.01,0.006667,11.116667,0,0,0,0
