run_id,seed,demand_factor,mode,origin_zone,destination_zone,flow_slot,scheduled_spawn_time_s,arrival_time_s,trajectory_duration_min,average_speed_kmh,trajectory_distance_km,congestion_duration_min,low_speed_duration_min,intermediate_speed_duration_min,high_speed_duration_min,copresence_car_percentage,copresence_bike_percentage,copresence_pedestrian_percentage
23,21092028,3,car,7.3,7.1,38,2.868,56.8,0.896667,18.317767,0.273749,0,0,0.896667,0,0,0,0
23,21092028,3,car,7.3,7.1,38,3.501,65.2,1.026667,15.998405,0.27375,0.003333,0.006667,1.016667,0,0,0,0
23,21092028,3,pedestrian,7.6,7.5,38,11.367,75.6,1.07,6.141655,0.109526,0,0,0,1.07,0,0,0
23,21092028,3,pedestrian,7.6,7.5,38,28.711,104.4,1.26,5.215532,0.109526,0,0,0,1.26,0,0,0
23,21092028,3,car,7.3,7.6,38,2.912,105,1.7,21.024624,0.595698,0.103333,0.19,1.406667,0,0,0,0
23,21092028,3,pedestrian,7.5,7.6,38,33.501,117.8,1.403333,4.68283,0.109526,0.07,0.006667,0.003333,1.323333,0,0,0
23,21092028,3,pedestrian,7.5,7.6,38,32.351,119.6,1.453333,4.521692,0.109525,0.176667,0,0.01,1.266667,0.917431,0,0
23,21092028,3,pedestrian,7.5,7.6,38,46.502,121,1.24,5.299654,0.109526,0.076667,0,0.01,1.153333,0,0,0
23,21092028,3,pedestrian,7.5,7.6,38,49.318,126.4,1.283333,5.120705,0.109526,0.006667,0,0,1.276667,0,0,0
23,21092028,3,car,7.1,7.3,38,37.118,132.8,1.593333,13.570692,0.360377,0,1.593333,0,0,0,0,0
23,21092028,3,car,7.1,7.3,38,48.664,133.2,1.406667,15.371522,0.360377,0.063333,0.303333,1.04,0,0,0,0
23,21092028,3,bike,7.6,7.1,38,82.568,149,1.106667,12.036515,0.222007,0,0.473333,0,0.633333,0,0,4.216867
23,21092028,3,car,7.1,7.3,38,71.38,151.6,1.336667,16.176539,0.360377,0,0,1.336667,0,0,0,0
23,21092028,3,car,7.1,7.3,38,75.404,152.2,1.276667,16.936794,0.360377,0,0.153333,1.123333,0,0,0,0
23,21092028,3,car,7.5,7.3,38,37.47,155,1.956667,17.413446,0.567872,0,0,1.956667,0,0,0,0
23,21092028,3,car,7.3,7.6,38,21.364,159,2.293333,15.585114,0.595698,0,0,2.293333,0,0,0,0
23,21092028,3,car,7.1,7.3,38,91.495,179.6,1.466667,14.742709,0.360377,0,1.466667,0,0,0,0,0
23,21092028,3,car,7.1,7.6,38,119.849,183.4,1.056667,21.372663,0.376396,0.003333,0.01,1.043333,0,0,0,0
23,21092028,3,car,7.1,7.3,38,116.57,189.2,1.21,17.869951,0.360377,0,0,1.21,0,0,0,0.826446
23,21092028,3,pedestrian,7.6,7.5,38,102.481,190,1.456667,4.511376,0.109526,0,0,0,1.456667,0,0,0
23,21092028,3,pedestrian,7.6,7.5,38,108.08,191.8,1.393333,4.716438,0.109526,0.053333,0.006667,0.003333,1.33,0,0,0
23,21092028,3,car,7.3,7.1,38,141.422,193.4,0.863333,19.025129,0.27375,0,0,0.863333,0,0,0,0
23,21092028,3,car,7.1,7.3,38,129.27,194.8,1.09,19.837285,0.360377,0,0,1.09,0,0,0,0.917431
23,21092028,3,car,7.1,7.3,38,131.674,195.4,1.06,20.398717,0.360377,0.01,0.113333,0.936667,0,0,0,0.628931
23,21092028,3,pedestrian,7.6,7.5,38,116.387,201.4,1.416667,4.638756,0.109526,0,0,0,1.416667,0,0,0
23,21092028,3,pedestrian,7.6,7.5,38,121.066,203.2,1.366667,4.808452,0.109526,0.066667,0.003333,0.003333,1.293333,0,0,0
23,21092028,3,bike,7.6,7.1,38,117.385,204.4,1.45,9.18649,0.222007,0,0.62,0.83,0,0,0,2.068966
23,21092028,3,pedestrian,7.6,7.5,38,127.709,207.8,1.333333,4.928678,0.109526,0,0,0,1.333333,0,0,0
23,21092028,3,pedestrian,7.5,7.6,38,127.533,209.8,1.37,4.796766,0.109526,0.086667,0.003333,0,1.28,0,0,0
23,21092028,3,pedestrian,7.5,7.3,38,11.045,211.4,3.336667,5.152584,0.286541,0,0,0,3.336667,0.4995,0,0
23,21092028,3,car,7.1,7.6,38,153.641,221.6,1.13,19.985627,0.376396,0.023333,0.04,1.066667,0,0,0,0.294985
23,21092028,3,pedestrian,7.3,7.6,38,73.769,222.8,2.483333,4.276897,0.177016,0,0,0,2.483333,0.805369,1.879195,0
23,21092028,3,pedestrian,7.6,7.5,38,130.283,225.4,1.583333,4.150466,0.109526,0,0,0,1.583333,0,0,0
23,21092028,3,pedestrian,7.6,7.5,38,132.255,227,1.576667,4.168015,0.109526,0.253333,0.006667,0.006667,1.31,0,0,0
23,21092028,3,pedestrian,7.6,7.5,38,138.933,229.6,1.51,4.352032,0.109526,0.076667,0,0.01,1.423333,0,0,0
23,21092028,3,pedestrian,7.5,7.6,38,144.465,231.2,1.443333,4.553048,0.109526,0.05,0,0,1.393333,0,0,0
23,21092028,3,pedestrian,7.3,7.5,38,30.476,231.4,3.346667,5.13721,0.286542,0.026667,0,0,3.32,0.896414,0,0
23,21092028,3,pedestrian,7.6,7.5,38,158.745,233,1.236667,5.313939,0.109526,0.093333,0.003333,0.006667,1.133333,0,0,0
23,21092028,3,pedestrian,7.4,7.5,38,13.182,234.8,3.693333,5.551133,0.341703,0.093333,0,0.01,3.59,0,0,0
23,21092028,3,car,7.1,7.3,38,141.194,236.6,1.59,13.599145,0.360377,0,1.59,0,0,0,0,0.209644
23,21092028,3,car,7.6,7.1,38,177.757,237.2,0.99,17.846686,0.29447,0.006667,0.03,0.953333,0,0,0,1.010101
23,21092028,3,pedestrian,7.5,7.6,38,152.606,237.4,1.41,4.660687,0.109526,0,0,0,1.41,0,0,0
23,21092028,3,pedestrian,7.5,7.3,38,19.363,242.2,3.713333,4.629945,0.286542,0.016667,0,0,3.696667,0.897666,0,0
23,21092028,3,car,7.1,7.3,38,146.644,242.4,1.593333,13.570695,0.360377,0,1.593333,0,0,0,0,0
23,21092028,3,car,7.1,7.3,38,154.39,243,1.476667,14.642872,0.360377,0,1.476667,0,0,0,0,0.677201
23,21092028,3,bike,7.1,7.5,38,130.877,247,1.933333,13.265163,0.427433,0.063333,0.553333,0.02,1.296667,0.517241,0,6.896552
23,21092028,3,bike,7.5,7.1,38,88.566,248.6,2.666667,9.617243,0.427433,0,0.686667,1.98,0,0,0,3.25
23,21092028,3,bike,7.1,7.6,38,162.495,249,1.44,9.250248,0.222006,0,0.616667,0.823333,0,3.240741,0,3.240741
23,21092028,3,car,7.1,7.3,38,167.69,249.8,1.366667,15.821444,0.360377,0,0,1.366667,0,0,0,0
23,21092028,3,car,7.1,7.3,38,183.677,250.2,1.106667,19.538531,0.360377,0.026667,0.076667,1.003333,0,0,0,0
23,21092028,3,car,7.3,7.1,38,199.695,253.2,0.89,18.455088,0.27375,0,0,0.89,0,0,0,0
23,21092028,3,bike,7.1,7.6,38,186.293,255.6,1.153333,11.549488,0.222007,0,0.493333,0.003333,0.656667,0,0,2.890173
23,21092028,3,pedestrian,7.5,7.6,38,173.943,260.8,1.446667,4.54256,0.109526,0.083333,0.003333,0,1.36,0,0,0
23,21092028,3,pedestrian,7.6,7.1,38,15.527,267.6,4.2,5.984055,0.418884,0,0,0,4.2,0,1.984127,0
23,21092028,3,pedestrian,7.5,7.4,38,31.673,272.8,4.016667,4.661086,0.312034,0,0,0,4.016667,0,0.33195,0
23,21092028,3,car,7.1,7.3,38,187.738,273.8,1.433333,15.085563,0.360377,0,0.076667,1.356667,0,0,0,0
23,21092028,3,car,7.1,7.3,38,194.927,274,1.316667,16.422259,0.360377,0.21,0.346667,0.76,0,0,0,0
23,21092028,3,pedestrian,7.5,7.4,38,47.369,274.4,3.783333,4.948555,0.312034,0.463333,0.01,0.01,3.3,0,4.845815,0
23,21092028,3,car,7.6,7.3,38,183.534,274.8,1.52,17.537207,0.444276,0.113333,0.18,1.226667,0,0,0,1.096491
23,21092028,3,pedestrian,7.3,7.4,38,187.004,279.4,1.536667,4.825248,0.12358,0,0,0,1.536667,0,1.301518,0
23,21092028,3,car,7.1,7.5,38,186.99,286.6,1.66,14.587001,0.403574,0,1.66,0,0,0,0,1.004016
23,21092028,3,car,7.1,7.5,38,203.917,287,1.383333,17.504385,0.403573,0.116667,0.216667,1.05,0,0,2.168675,0.722892
23,21092028,3,bike,7.1,7.6,38,211.554,287.4,1.263333,10.54386,0.222007,0,0.54,0.003333,0.72,0,0,5.277045
23,21092028,3,pedestrian,7.6,7.5,38,216.456,289,1.206667,5.446053,0.109526,0,0,0,1.206667,1.104972,0,0
23,21092028,3,pedestrian,7.6,7.5,38,218.942,290.8,1.196667,5.491563,0.109526,0.016667,0,0,1.18,0,0,0
23,21092028,3,pedestrian,7.1,7.6,38,54.559,312.2,4.293333,4.040325,0.289108,0,0,0,4.293333,0,3.02795,0
23,21092028,3,car,7.3,7.1,38,267.307,313.4,0.766667,21.42395,0.27375,0,0,0.766667,0,0,0,0
23,21092028,3,pedestrian,7.5,7.6,38,236.849,314.8,1.296667,5.068049,0.109526,0,0,0,1.296667,0,0,0
23,21092028,3,bike,7.5,7.1,38,186.665,316.2,2.156667,11.891486,0.427433,0,0.556667,0,1.6,0,0,3.24575
23,21092028,3,pedestrian,7.6,7.1,38,39.209,316.2,4.613333,5.447947,0.418887,0,0,0,4.613333,0.867052,4.407514,0
23,21092028,3,car,7.1,7.3,38,242.428,319,1.273333,16.981131,0.360377,0,0,1.273333,0,0,0,0.52356
23,21092028,3,pedestrian,7.3,7.4,38,207.41,319.4,1.863333,3.979319,0.12358,0,0,1.863333,0,3.220036,0,0
23,21092028,3,car,7.3,7.1,38,270.66,320.8,0.833333,19.71003,0.27375,0,0,0.833333,0,0,0,0
23,21092028,3,pedestrian,7.1,7.3,38,74.434,323.8,4.153333,5.177144,0.358373,0,0,0,4.153333,2.407705,0,0
23,21092028,3,bike,7.1,7.5,38,207.487,335,2.123333,12.078168,0.427433,0.073333,0.636667,0.013333,1.4,0.941915,0,5.808477
23,21092028,3,bike,7.1,7.6,38,259.369,335.4,1.266667,10.516107,0.222007,0,0.543333,0,0.723333,0,0,2.631579
23,21092028,3,car,7.3,7.1,38,284.052,338.2,0.9,18.250032,0.27375,0,0,0.9,0,0,0,0
23,21092028,3,car,7.1,7.3,38,250.078,340.4,1.503333,14.383126,0.360377,0,1.503333,0,0,0,0,0
23,21092028,3,car,7.1,7.5,38,276.847,347,1.166667,20.755218,0.403574,0.016667,0.05,1.1,0,0,0,2.285714
23,21092028,3,car,7.1,7.3,38,273.906,353,1.316667,16.422259,0.360377,0,0,1.316667,0,0,0,0
23,21092028,3,pedestrian,7.5,7.3,38,102.435,357,4.24,4.054842,0.286542,0,0,0,4.24,0.550314,0,0
23,21092028,3,pedestrian,7.5,7.1,38,18.436,366.8,5.803333,5.463193,0.528412,0,0,0,5.803333,0.229753,2.64216,0
23,21092028,3,pedestrian,7.5,7.4,38,77.159,368.2,4.85,3.860213,0.312034,0,0,4.85,0,1.718213,0.549828,0
23,21092028,3,pedestrian,7.5,7.4,38,90.812,370,4.65,4.026238,0.312033,0.74,0.02,1.776667,2.113333,1.290323,5.16129,0
23,21092028,3,bike,7.6,7.1,38,296.76,370.2,1.223333,10.888618,0.222007,0.08,0.523333,0.003333,0.616667,0,0,8.719346
23,21092028,3,pedestrian,7.5,7.3,38,129.409,371.4,4.03,4.266137,0.286542,0.046667,0,0,3.983333,0.992556,0,0
23,21092028,3,pedestrian,7.5,7.4,38,103.932,371.6,4.46,4.197765,0.312034,0.986667,0.023333,0.006667,3.443333,0.44843,0,0
23,21092028,3,pedestrian,7.5,7.3,38,133.133,372.8,3.993333,4.305308,0.286542,0.733333,0.003333,0.01,3.246667,0,0,0
23,21092028,3,pedestrian,7.5,7.4,38,112.783,373.4,4.343333,4.310522,0.312034,1.016667,0.01,0.013333,3.303333,0.460476,0,0
23,21092028,3,pedestrian,7.6,7.3,38,229.527,374.8,2.42,4.388826,0.177016,0.433333,0.003333,0.003333,1.98,0,0,0
23,21092028,3,pedestrian,7.1,7.4,38,114.316,375.4,4.35,5.294622,0.38386,0.173333,0.003333,0,4.173333,3.141762,0,0
23,21092028,3,car,7.5,7.1,38,308.463,375.6,1.116667,22.463405,0.418069,0,0,1.116667,0,0,0.597015,2.089552
23,21092028,3,pedestrian,7.6,7.5,38,272.055,380,1.796667,3.657628,0.109526,0,0,1.796667,0,0,0,0
23,21092028,3,pedestrian,7.5,7.4,38,129.902,380.8,4.18,4.478955,0.312034,0.023333,0,0.003333,4.153333,1.355662,0,0
23,21092028,3,pedestrian,7.6,7.5,38,279.19,381.8,1.71,3.843024,0.109526,0.186667,0.006667,0.633333,0.883333,0,0,0
23,21092028,3,pedestrian,7.3,7.4,38,296.842,382.6,1.426667,5.197288,0.12358,0.04,0,0.003333,1.383333,0,0,0
23,21092028,3,pedestrian,7.3,7.5,38,136.913,384,4.116667,4.176319,0.286542,0.263333,0.01,0.003333,3.84,0,0,0
23,21092028,3,pedestrian,7.5,7.4,38,133.06,384.2,4.183333,4.475383,0.312034,0.9,0.013333,0.013333,3.256667,0,0,0
23,21092028,3,pedestrian,7.3,7.5,38,171.302,385.8,3.573333,4.811343,0.286542,0.47,0.006667,0.016667,3.08,0,0,0
23,21092028,3,car,7.3,7.1,38,326.984,387.6,1.01,16.262404,0.27375,0,0,1.01,0,0,0,0
23,21092028,3,pedestrian,7.6,7.5,38,303.102,388.2,1.416667,4.638756,0.109526,0.046667,0,0,1.37,0,0,0
23,21092028,3,pedestrian,7.1,7.5,38,106.945,389.8,4.713333,5.074546,0.398634,0.383333,0.013333,0.01,4.306667,0,5.657709,0
23,21092028,3,pedestrian,7.3,7.5,38,182.888,397.8,3.58,4.802383,0.286542,0.03,0,0.003333,3.546667,0,0,0
23,21092028,3,pedestrian,7.1,7.5,38,121.225,403.8,4.706667,5.081735,0.398634,0,0,0,4.706667,0,3.68272,0
23,21092028,3,bike,7.6,7.1,38,330.23,409.8,1.323333,10.065801,0.222007,0,0.566667,0.003333,0.753333,1.511335,0,5.037783
23,21092028,3,bike,7.6,7.1,38,340.712,411.4,1.176667,11.320457,0.222007,0.043333,0.486667,0,0.646667,0,0,5.382436
23,21092028,3,bike,7.1,7.6,38,334.298,414.4,1.333333,9.990269,0.222006,0,0.573333,0.76,0,0,0,6.5
23,21092028,3,bike,7.1,7.6,38,346.152,415,1.146667,11.616635,0.222007,0.046667,0.45,0.166667,0.483333,0,0,7.848837
23,21092028,3,bike,7.1,7.5,38,297.988,418,2,12.822991,0.427433,0,0.516667,0,1.483333,0,0,1.5
23,21092028,3,pedestrian,7.3,7.4,38,343.834,425.4,1.356667,5.465453,0.12358,0,0,0,1.356667,0,1.228501,0
23,21092028,3,pedestrian,7.1,7.6,38,215.006,427.4,3.536667,4.904748,0.289108,0,0,0,3.536667,0.282752,4.806786,0
23,21092028,3,bike,7.6,7.1,38,361.83,429,1.116667,11.928705,0.222006,0,0.476667,0,0.64,0,0,7.761194
23,21092028,3,bike,7.1,7.6,38,362.903,438.4,1.256667,10.599795,0.222007,0,0.54,0,0.716667,0,0,6.100796
23,21092028,3,car,7.1,7.3,38,374.169,443,1.146667,18.856934,0.360377,0,0,1.146667,0,0,0,0
23,21092028,3,car,7.1,7.3,38,377.021,444.4,1.12,19.305921,0.360377,0,0,1.12,0,0,0,0
23,21092028,3,pedestrian,7.4,7.5,38,155.677,445,4.82,4.253559,0.341703,0,0,0,4.82,0.207469,0.829876,0
23,21092028,3,pedestrian,7.6,7.5,38,352.088,446.4,1.57,4.185714,0.109526,0.246667,0.003333,0.01,1.31,0,0,0
23,21092028,3,pedestrian,7.5,7.3,38,187.262,447.4,4.333333,3.967507,0.286542,0.033333,0,4.3,0,0.461538,0,0
23,21092028,3,car,7.1,7.3,38,383.136,447.6,1.073333,20.145317,0.360377,0,0,1.073333,0,0,0,0
23,21092028,3,bike,7.1,7.5,38,315.34,448.2,2.213333,11.587037,0.427433,0.006667,0.573333,0,1.633333,0,0,4.518072
23,21092028,3,pedestrian,7.5,7.3,38,202.442,449.6,4.116667,4.176323,0.286542,0.316667,0.006667,1.356667,2.436667,0.647773,0,0
23,21092028,3,pedestrian,7.5,7.6,38,370.703,451,1.336667,4.916387,0.109526,0.16,0.003333,0,1.173333,0,0,0
23,21092028,3,car,7.1,7.3,38,394.464,453,0.973333,22.215033,0.360377,0,0,0.973333,0,0,0,0
23,21092028,3,car,7.3,7.1,38,401.753,454.8,0.883333,18.594372,0.27375,0.01,0.143333,0.73,0,0,0,0
23,21092028,3,pedestrian,7.5,7.3,38,212.005,454.8,4.043333,4.252069,0.286542,0.026667,0,0.106667,3.91,0.577082,0,0
23,21092028,3,pedestrian,7.3,7.5,38,216.041,455,3.98,4.319731,0.286542,0,0,0,3.98,0.586265,0,0
23,21092028,3,pedestrian,7.3,7.6,38,349.444,455,1.756667,6.046087,0.177016,0,0,0,1.756667,0,0,0
23,21092028,3,pedestrian,7.5,7.3,38,212.435,456.8,4.07,4.224203,0.286542,0.176667,0.003333,0.006667,3.883333,0.573301,0,0
23,21092028,3,pedestrian,7.6,7.5,38,366.73,456.8,1.5,4.381047,0.109526,0.166667,0.016667,0,1.316667,0,0,0
23,21092028,3,car,7.5,7.3,38,352.679,468.6,1.93,17.654086,0.567873,0,0,1.93,0,0,0,0.863558
23,21092028,3,pedestrian,7.1,7.3,38,176.967,469.8,4.88,4.40623,0.358373,0,0,0,4.88,1.02459,2.663934,0
23,21092028,3,pedestrian,7.1,7.3,38,189.878,471.6,4.693333,4.581478,0.358373,0.376667,0.016667,0.023333,4.276667,0.994318,0,0
23,21092028,3,pedestrian,7.4,7.1,38,63.607,473.6,6.83,4.751234,0.540849,0,0,0,6.83,1.756955,0,0
23,21092028,3,pedestrian,7.5,7.3,38,248.197,474,3.763333,4.568431,0.286542,0.253333,0.013333,0.01,3.486667,0,0,0
23,21092028,3,pedestrian,7.5,7.3,38,249.801,475.8,3.763333,4.568431,0.286542,0.613333,0.01,0.01,3.13,0,0,0
23,21092028,3,bike,7.1,7.6,38,387.056,477.6,1.506667,8.84098,0.222007,0.053333,0.626667,0.826667,0,0,0,10.39823
23,21092028,3,pedestrian,7.1,7.4,38,221.478,477.8,4.27,5.393833,0.383861,0.323333,0.006667,0.01,3.93,0.858704,1.327088,0
23,21092028,3,bike,7.1,7.6,38,390.788,478.4,1.46,9.123568,0.222007,0.156667,0.546667,0.236667,0.52,0,0,5.707763
23,21092028,3,pedestrian,7.5,7.3,38,265.052,478.6,3.556667,4.833889,0.286542,0.156667,0.006667,0.006667,3.386667,0,0,0
23,21092028,3,bike,7.6,7.1,38,398.486,479.6,1.35,9.86697,0.222007,0.033333,0.563333,0.003333,0.75,0,0,14.074074
23,21092028,3,bike,7.1,7.6,38,410.508,480.4,1.163333,11.450209,0.222007,0,0.5,0,0.663333,0,0,7.163324
23,21092028,3,bike,7.5,7.1,38,359.186,481,2.03,12.633489,0.427433,0.156667,0.486667,0.126667,1.26,0,0,7.553366
23,21092028,3,pedestrian,7.6,7.5,38,392.975,487,1.566667,4.194607,0.109526,0,0,0,1.566667,0,0,0
23,21092028,3,pedestrian,7.6,7.5,38,401.605,488.8,1.45,4.532118,0.109526,0.13,0.003333,0.003333,1.313333,0,0,0
23,21092028,3,pedestrian,7.1,7.5,38,189.925,492,5.033333,4.751927,0.398634,0.03,0,0,5.003333,0,2.450331,0
23,21092028,3,pedestrian,7.3,7.5,38,285.684,493.8,3.466667,4.959346,0.28654,0.07,0.003333,0.003333,3.39,0.961538,0,0
23,21092028,3,pedestrian,7.6,7.4,38,337.183,497,2.663333,4.562126,0.202508,0,0,0,2.663333,0,0,0
23,21092028,3,pedestrian,7.3,7.6,38,371.456,497.8,2.103333,5.049529,0.177014,0,0,0,2.103333,2.377179,0,0
23,21092028,3,pedestrian,7.5,7.4,38,249.654,498.8,4.15,4.511333,0.312034,0.576667,0.02,0.01,3.543333,0,0,0
23,21092028,3,pedestrian,7.5,7.3,38,274.23,500.4,3.766667,4.564389,0.286542,0,0,0,3.766667,0.79646,0,0
23,21092028,3,pedestrian,7.5,7.6,38,418.057,503.2,1.416667,4.638756,0.109526,0,0,0,1.416667,0,0,0
23,21092028,3,pedestrian,7.5,7.6,38,422.306,509.8,1.456667,4.511265,0.109523,0,0,0,1.456667,0,0,0
23,21092028,3,pedestrian,7.6,7.4,38,349.728,513.2,2.723333,4.461607,0.202507,0.023333,0,0.003333,2.696667,0,0.367197,0
23,21092028,3,pedestrian,7.5,7.1,38,56.59,515.2,7.643333,4.147999,0.528409,0,0,0,7.643333,0.43611,9.027475,0
23,21092028,3,pedestrian,7.6,7.5,38,438.599,519.2,1.343333,4.891988,0.109526,0,0,0,1.343333,0,0,0
23,21092028,3,pedestrian,7.4,7.3,38,461.582,521,0.99,4.452715,0.07347,0,0,0,0.99,0,0,0
23,21092028,3,pedestrian,7.6,7.5,38,444.316,521,1.276667,5.147444,0.109526,0.01,0,0,1.266667,0,0,0
23,21092028,3,car,7.1,7.6,38,430.642,521.6,1.513333,14.923203,0.376396,0,1.513333,0,0,0,0,1.321586
23,21092028,3,car,7.3,7.6,38,399.905,522.2,2.036667,17.549196,0.595698,0.006667,0.093333,1.936667,0,0,0.654664,0.654664
23,21092028,3,pedestrian,7.5,7.1,38,125.933,524.2,6.636667,4.777199,0.528411,0.013333,0,0,6.623333,0.301356,3.716725,0
23,21092028,3,pedestrian,7.5,7.3,38,318.375,524.6,3.436667,5.002676,0.286542,0.376667,0.003333,0.753333,2.303333,0,0.775946,0
23,21092028,3,pedestrian,7.1,7.5,38,233.498,531,4.956667,4.825418,0.398633,0,0,0,4.956667,0,3.564223,0
23,21092028,3,car,7.1,7.3,38,458.649,531.8,1.216667,17.772033,0.360377,0,0,1.216667,0,0,0,0
23,21092028,3,pedestrian,7.1,7.5,38,265.381,532.6,4.453333,5.370815,0.398634,0.336667,0.016667,0.023333,4.076667,0,3.667665,0
23,21092028,3,bike,7.1,7.6,38,468.571,535.8,1.12,11.893212,0.222007,0,0.48,0,0.64,0,0,5.059524
23,21092028,3,car,7.1,7.3,38,466.759,539.8,1.216667,17.772033,0.360377,0,0,1.216667,0,0,0,0
23,21092028,3,car,7.3,7.1,38,487.823,549.4,1.023333,16.050517,0.27375,0,0,1.023333,0,0,0,0
23,21092028,3,pedestrian,7.5,7.1,38,131.421,557.4,7.096667,4.467533,0.52841,0.103333,0,0.01,6.983333,0,3.757633,0
23,21092028,3,car,7.1,7.3,38,489.708,562.8,1.216667,17.77202,0.360377,0.046667,0.086667,1.083333,0,0,0,1.09589
23,21092028,3,pedestrian,7.6,7.5,38,486.583,563.2,1.276667,5.147444,0.109526,0,0,0,1.276667,0,0,0
23,21092028,3,pedestrian,7.6,7.4,38,375.094,564.8,3.16,3.845083,0.202508,0,0,3.16,0,0,1.265823,0
23,21092028,3,pedestrian,7.5,7.4,38,333.254,566.6,3.886667,4.81699,0.312034,0.22,0,0.5,3.166667,0,0,0
23,21092028,3,pedestrian,7.1,7.4,38,294.646,568.6,4.563333,5.047161,0.383865,0.056667,0.003333,0,4.503333,0.73046,0,0
23,21092028,3,pedestrian,7.5,7.4,38,333.909,570.8,3.946667,4.74372,0.312031,0.043333,0,0.006667,3.896667,0,0,0
23,21092028,3,car,7.1,7.3,38,492.438,571,1.306667,16.547913,0.360377,0.003333,0.013333,1.29,0,0,0,0
23,21092028,3,bike,7.6,7.1,38,476.1,572,1.596667,8.342637,0.222007,0.12,0.636667,0.84,0,1.25261,0,12.734864
23,21092028,3,pedestrian,7.6,7.4,38,425.097,572.6,2.456667,4.945914,0.202508,0.093333,0.006667,0.003333,2.353333,0,0,0
23,21092028,3,pedestrian,7.4,7.5,38,320.452,573,4.206667,4.873721,0.341702,0,0,0,4.206667,0,0.475436,0
23,21092028,3,pedestrian,7.6,7.5,38,493.23,574.6,1.353333,4.85584,0.109526,0.166667,0.003333,0.013333,1.17,0,0,0
23,21092028,3,car,7.3,7.1,38,519.154,575,0.93,17.661321,0.27375,0,0,0.93,0,0,0,0
23,21092028,3,car,7.1,7.3,38,504.307,576,1.193333,18.119531,0.360377,0,0,1.193333,0,0,0,0
23,21092028,3,pedestrian,7.6,7.5,38,494.269,576.6,1.37,4.796767,0.109526,0.163333,0.01,0.006667,1.19,0,0,0
23,21092028,3,pedestrian,7.5,7.3,38,344.616,577,3.87,4.442514,0.286542,0,0,0,3.87,0.344531,0,0
23,21092028,3,car,7.1,7.6,38,489.634,578.2,1.473333,15.328358,0.376396,0,0,1.473333,0,0,0,1.809955
23,21092028,3,pedestrian,7.1,7.5,38,302.776,578.6,4.596667,5.203342,0.398634,0.033333,0,0.006667,4.556667,1.740392,3.190718,0
23,21092028,3,pedestrian,7.5,7.3,38,392.656,578.8,3.1,5.545977,0.286542,0.183333,0,0.006667,2.91,0,0,0
23,21092028,3,pedestrian,7.5,7.4,38,345.527,580.2,3.91,4.788244,0.312034,0.576667,0.013333,0.016667,3.303333,0.341006,0,0
23,21092028,3,pedestrian,7.5,7.3,38,375.332,580.4,3.416667,5.03196,0.286542,0.446667,0.006667,0.006667,2.956667,0,0,0
23,21092028,3,pedestrian,7.5,7.4,38,356.146,587,3.846667,4.86708,0.312034,0.39,0,0.016667,3.44,0,0,0
23,21092028,3,pedestrian,7.5,7.4,38,366.748,592,3.753333,4.988108,0.312034,0.276667,0,0.013333,3.463333,0,0,0
23,21092028,3,car,7.3,7.1,38,530.222,594.2,1.063333,15.44667,0.273749,0,0,1.063333,0,0,0,0
23,21092028,3,car,7.3,7.1,38,536.175,594.8,0.976667,16.817435,0.27375,0.103333,0.26,0.613333,0,0,0,0
23,21092028,3,pedestrian,7.5,7.6,38,510.012,601,1.513333,4.342448,0.109526,0.213333,0.003333,0.006667,1.29,0.881057,0,0
23,21092028,3,pedestrian,7.5,7.3,38,404.684,601.8,3.283333,5.236304,0.286542,0,0,0,3.283333,0,0,0
23,21092028,3,car,7.3,7.6,38,445.998,602.2,2.603333,13.729231,0.595696,0,2.603333,0,0,0,0,0.384123
23,21092028,3,pedestrian,7.6,7.5,38,513.369,602.6,1.486667,4.420339,0.109526,0,0,0,1.486667,0,0,0
23,21092028,3,pedestrian,7.5,7.6,38,515.069,603,1.463333,4.490823,0.109526,0.163333,0.006667,0.003333,1.29,0,0,0
23,21092028,3,pedestrian,7.4,7.5,38,342.599,604.6,4.366667,4.695157,0.341703,0.076667,0,0.003333,4.286667,1.450382,0.458015,0
23,21092028,3,car,7.1,7.3,38,535.22,611.2,1.263333,17.11554,0.360377,0,0,1.263333,0,0,0,0
23,21092028,3,pedestrian,7.5,7.1,38,163.762,616.2,7.54,4.204871,0.528412,0,0,0,7.54,0,3.094607,0
23,21092028,3,pedestrian,7.5,7.1,38,173.716,617.8,7.4,4.284428,0.528413,1.163333,0.04,0.056667,6.14,0.135135,3.333333,0
23,21092028,3,pedestrian,7.5,7.1,38,181.133,619.6,7.306667,4.339155,0.528413,1.52,0.026667,0.046667,5.713333,0.182482,7.937956,0
23,21092028,3,pedestrian,7.4,7.3,38,554.614,620.8,1.1,4.007657,0.073474,0,0,0,1.1,0,0,0
23,21092028,3,pedestrian,7.5,7.1,38,187.385,622,7.243333,4.377096,0.528413,0.786667,0.033333,0.066667,6.356667,0.184077,4.371836,0
23,21092028,3,bike,7.6,7.1,38,538.055,624.2,1.433333,9.293258,0.222006,0.023333,0.603333,0.806667,0,0,0,6.511628
23,21092028,3,car,7.1,7.6,38,527.527,627.4,1.663333,13.577423,0.376396,0,1.663333,0,0,0,0,1.002004
23,21092028,3,car,7.1,7.6,38,537.964,628,1.5,15.055854,0.376396,0.046667,0.33,1.123333,0,0,0,1.555556
23,21092028,3,car,7.1,7.3,38,547.538,636,1.473333,14.675959,0.360376,0,1.473333,0,0,0,0,0
23,21092028,3,car,7.1,7.3,38,557.119,636.4,1.32,16.380774,0.360377,0.15,0.32,0.85,0,0,0,0
23,21092028,3,car,7.3,7.1,38,582.87,641.6,0.976667,16.817435,0.27375,0,0,0.976667,0,0,0,0
23,21092028,3,car,7.1,7.3,38,565.343,647,1.36,15.899,0.360377,0,0,1.36,0,0,0,0
23,21092028,3,bike,7.1,7.6,38,553.564,651.8,1.636667,8.138743,0.222007,0,0.7,0.936667,0,0,0,10.590631
23,21092028,3,bike,7.1,7.6,38,566.197,652.6,1.44,9.250285,0.222007,0.006667,0.61,0.823333,0,0,0,13.657407
23,21092028,3,car,7.1,7.3,38,568.257,656.6,1.47,14.709258,0.360377,0,1.47,0,0,0,0,0
23,21092028,3,car,7.1,7.3,38,580.253,656.8,1.273333,16.981131,0.360377,0.12,0.276667,0.876667,0,0,0,0.78534
23,21092028,3,pedestrian,7.1,7.6,38,446.516,657.2,3.51,4.942011,0.289108,0.31,0.01,0.29,2.9,0,0.569801,0
23,21092028,3,car,7.1,7.3,38,582.975,657.4,1.24,17.437597,0.360377,0.12,0.156667,0.963333,0,0,0,0
23,21092028,3,car,7.1,7.3,38,592.244,658.2,1.096667,19.716693,0.360377,0.01,0.02,1.066667,0,0,0,0
23,21092028,3,car,7.1,7.6,38,598.408,659.6,1.016667,22.213555,0.376396,0,0,1.016667,0,0,0,1.311475
23,21092028,3,bike,7.1,7.6,38,574.659,662.6,1.463333,9.102786,0.222007,0,0.626667,0.836667,0,0,0,7.517084
23,21092028,3,pedestrian,7.6,7.5,38,596.096,673.8,1.293333,5.081111,0.109526,0,0,0,1.293333,0,0,0
23,21092028,3,car,7.1,7.3,38,606.676,674.2,1.123333,19.248605,0.360377,0,0,1.123333,0,0,0,1.186944
23,21092028,3,pedestrian,7.6,7.4,38,511.092,676.8,2.76,4.402341,0.202508,0,0,0,2.76,0,0,0
23,21092028,3,pedestrian,7.5,7.4,38,434.701,678.8,4.066667,4.603779,0.312034,0.14,0.003333,0.006667,3.916667,0,0,0
23,21092028,3,car,7.3,7.1,38,618.274,684.4,1.1,14.931844,0.27375,0,1.1,0,0,0,0,0
23,21092028,3,bike,7.1,7.6,38,609.74,685.8,1.266667,10.516113,0.222007,0,0.543333,0.003333,0.72,0,0,7.631579
23,21092028,3,bike,7.1,7.6,38,616.079,686.6,1.173333,11.352592,0.222006,0.036667,0.463333,0.206667,0.466667,0,0,7.670455
23,21092028,3,pedestrian,7.5,7.6,38,579.505,687.8,1.803333,3.644124,0.109526,0.396667,0,0.006667,1.4,0.739372,0,0
23,21092028,3,pedestrian,7.4,7.3,38,639.642,688.8,0.816667,5.398068,0.073474,0,0,0,0.816667,0,0,0
23,21092028,3,pedestrian,7.3,7.6,38,483.846,690.6,3.443333,3.084499,0.177016,0,0,3.443333,0,2.226525,0,0
23,21092028,3,pedestrian,7.3,7.5,38,460.601,693,3.87,4.442514,0.286542,0,0,0,3.87,1.722653,0,0
23,21092028,3,car,7.1,7.3,38,639.279,694.2,0.913333,23.674424,0.360377,0,0,0.913333,0,0,0,1.094891
23,21092028,3,pedestrian,7.3,7.6,38,491.706,696.4,3.41,3.114651,0.177016,0.806667,0.01,1.163333,1.43,2.248289,0,0
23,21092028,3,bike,7.6,7.1,38,614.27,700.2,1.43,9.314972,0.222007,0,0.61,0.82,0,0,0,3.496503
23,21092028,3,pedestrian,7.5,7.6,38,627.068,706.8,1.326667,4.953445,0.109526,0.05,0,0.006667,1.27,0,0,0
23,21092028,3,pedestrian,7.1,7.5,38,346.424,709.4,6.046667,3.955571,0.398634,0,0,6.046667,0,0.551268,3.528115,0
23,21092028,3,pedestrian,7.1,7.5,38,404.836,711.2,5.103333,4.686747,0.398634,0.76,0.006667,0.686667,3.65,0,2.351404,0
23,21092028,3,pedestrian,7.1,7.5,38,348.111,712.8,6.076667,3.936045,0.398634,1.406667,0.033333,1.34,3.296667,0.548546,3.400987,0
23,21092028,3,car,7.1,7.6,38,614.66,714.4,1.66,13.604685,0.376396,0,1.66,0,0,0,0,1.606426
23,21092028,3,pedestrian,7.1,7.5,38,429.832,714.6,4.743333,5.042452,0.398634,0.57,0.003333,0.003333,4.166667,0,1.8974,0
23,21092028,3,car,7.1,7.6,38,620.901,715,1.566667,14.415177,0.376396,0.193333,0.45,0.923333,0,0,0,1.489362
23,21092028,3,car,7.1,7.6,38,616.357,715.6,1.653333,13.659504,0.376395,0.223333,0.456667,0.973333,0,0,0,1.814516
23,21092028,3,car,7.1,7.6,38,647.339,716.2,1.146667,19.695158,0.376396,0.116667,0.126667,0.903333,0,0,0.872093,0.872093
23,21092028,3,pedestrian,7.6,7.4,38,547.161,716.4,2.82,4.308664,0.202507,0,0,0,2.82,1.182033,0,0
23,21092028,3,pedestrian,7.6,7.5,38,617.386,716.6,1.653333,3.97474,0.109526,0.436667,0.006667,0.006667,1.203333,0,0,0
23,21092028,3,pedestrian,7.1,7.5,38,358.451,718.4,5.996667,3.988554,0.398634,1.49,0.023333,0.293333,4.19,0.555864,9.394108,0
23,21092028,3,pedestrian,7.6,7.5,38,640.574,720.6,1.333333,4.928678,0.109526,0.033333,0.003333,0,1.296667,0,0,0
23,21092028,3,pedestrian,7.5,7.3,38,443.207,725,4.693333,3.663181,0.286542,0,0,4.693333,0,0.639205,0,0
23,21092028,3,car,7.1,7.3,38,640.181,727,1.446667,14.946514,0.360377,0,1.446667,0,0,0,0,0.230415
23,21092028,3,pedestrian,7.5,7.3,38,454.104,727,4.546667,3.781348,0.286542,0.626667,0.013333,1.686667,2.22,0.58651,0,0
23,21092028,3,car,7.1,7.3,38,643.6,727.4,1.393333,15.518641,0.360377,0.11,0.346667,0.936667,0,0,0,0.239234
23,21092028,3,car,7.1,7.6,38,654.09,728.8,1.243333,18.163899,0.376396,0,0,1.243333,0,0,0,1.340483
23,21092028,3,car,7.1,7.6,38,667.405,731.4,1.063333,21.238665,0.376396,0.02,0.036667,1.006667,0,0,0,0.626959
23,21092028,3,pedestrian,7.5,7.3,38,459.619,732,4.536667,3.789683,0.286542,0,0,4.536667,0,1.763409,0,0
23,21092028,3,car,7.1,7.3,38,649.708,732,1.37,15.782938,0.360377,0,0,1.37,0,0,0,0
23,21092028,3,car,7.1,7.3,38,650.926,732.6,1.36,15.899,0.360377,0.06,0.313333,0.986667,0,0,0,0
23,21092028,3,pedestrian,7.1,7.5,38,431.552,734.8,5.053333,4.733105,0.398633,0,0,0,5.053333,0,1.846966,0
23,21092028,3,pedestrian,7.1,7.5,38,438.584,736.4,4.963333,4.818945,0.398634,0.57,0.03,0.02,4.343333,0,3.626595,0
23,21092028,3,pedestrian,7.5,7.6,38,641.235,736.4,1.583333,4.15045,0.109526,0.036667,0.003333,0.003333,1.54,0,0,0
23,21092028,3,pedestrian,7.1,7.5,38,443.225,738.8,4.923333,4.858097,0.398634,0.16,0.003333,0.013333,4.746667,0,1.760325,0
23,21092028,3,pedestrian,7.5,7.3,38,509.645,739.8,3.833333,4.485008,0.286542,0.436667,0.003333,0.023333,3.37,0.956522,0,0
23,21092028,3,pedestrian,7.6,7.5,38,673.156,745.6,1.206667,5.446053,0.109526,0,0,0,1.206667,0,0,0
23,21092028,3,pedestrian,7.6,7.1,38,298.665,746.2,7.456667,3.370567,0.418887,0,0,7.456667,0,0,2.905677,0
23,21092028,3,pedestrian,7.5,7.1,38,215.575,748,8.873333,3.573039,0.528413,1.706667,0.05,2.636667,4.48,0,2.892562,0
23,21092028,3,car,7.3,7.1,38,677.02,750.8,1.226667,13.389967,0.27375,0,1.226667,0,0,0,0,0
23,21092028,3,pedestrian,7.5,7.1,38,244.106,750.8,8.443333,3.755006,0.528413,0.85,0.026667,0.053333,7.513333,0.197394,10.659297,0
23,21092028,3,car,7.3,7.1,38,677.964,751.4,1.223333,13.426454,0.27375,0.113333,0.406667,0.703333,0,0,0,0
23,21092028,3,car,7.6,7.1,38,696.913,752,0.916667,19.274553,0.294472,0.023333,0.053333,0.84,0,0,0,1.818182
23,21092028,3,car,7.1,7.3,38,660.615,752.6,1.53,14.132445,0.360377,0,1.53,0,0,0,0,1.742919
23,21092028,3,car,7.3,7.1,38,696.216,752.6,0.936667,17.535618,0.27375,0.066667,0.06,0.81,0,0,0,0
23,21092028,3,pedestrian,7.6,7.1,38,399.524,764,6.073333,4.138287,0.418887,0,0,0,6.073333,0,4.500549,0
23,21092028,3,bike,7.6,7.1,38,663.822,766,1.7,7.835535,0.222007,0,0.726667,0.973333,0,0.588235,0,5.294118
23,21092028,3,pedestrian,7.5,7.1,38,320.174,766.2,7.433333,4.265215,0.528413,0.323333,0.03,0.053333,7.026667,0,3.811659,0
23,21092028,3,bike,7.6,7.1,38,673.261,767.8,1.573333,8.466345,0.222006,0.2,0.59,0.783333,0,1.059322,0,6.567797
23,21092028,3,pedestrian,7.5,7.1,38,330.23,768.2,7.296667,4.345102,0.528413,0.716667,0.043333,0.043333,6.493333,0,9.090909,0
23,21092028,3,pedestrian,7.5,7.4,38,505.028,770,4.413333,4.242152,0.312034,0,0,0,4.413333,1.435045,0,0
23,21092028,3,pedestrian,7.4,7.1,38,342.637,770.4,7.126667,4.553467,0.540851,0.183333,0.016667,0.006667,6.92,0.374181,0,0
23,21092028,3,pedestrian,7.5,7.4,38,516.605,771.8,4.25,4.405184,0.312034,0.58,0.013333,0.013333,3.643333,0.235294,0,0
23,21092028,3,pedestrian,7.6,7.5,38,691.12,773.4,1.37,4.796767,0.109526,0,0,0,1.37,0.729927,0,0
23,21092028,3,pedestrian,7.5,7.4,38,529.89,774.2,4.07,4.600008,0.312034,0.146667,0.003333,0.003333,3.916667,0.655201,0,0
23,21092028,3,bike,7.1,7.6,38,692.113,774.6,1.373333,9.699328,0.222007,0,0.586667,0.786667,0,0,0,1.941748
23,21092028,3,pedestrian,7.3,7.5,38,526.653,775.2,4.14,4.152764,0.286541,0.616667,0.01,0.213333,3.3,2.495974,0,0
23,21092028,3,pedestrian,7.3,7.5,38,546.859,777,3.833333,4.485008,0.286542,0.58,0.006667,0.02,3.226667,2.695652,0,0
23,21092028,3,pedestrian,7.6,7.5,38,699.228,779.6,1.336667,4.916387,0.109526,0,0,0,1.336667,0,0,0
23,21092028,3,pedestrian,7.5,7.6,38,680.746,780.8,1.666667,3.942942,0.109526,0.126667,0,0.563333,0.976667,0,0,0
23,21092028,3,car,7.1,7.3,38,721.746,782.8,1.016667,21.268146,0.360377,0,0,1.016667,0,0,0,0
23,21092028,3,bike,7.1,7.6,38,721.357,786.4,1.083333,12.295401,0.222,0,0.463333,0.003333,0.616667,0,0,5.846154
23,21092028,3,pedestrian,7.5,7.6,38,703.055,788.4,1.42,4.627867,0.109526,0.276667,0.01,0,1.133333,1.173709,0,0
23,21092028,3,pedestrian,7.6,7.3,38,641.558,788.6,2.45,4.335057,0.177015,0,0,0,2.45,0.680272,0,0
23,21092028,3,car,7.1,7.3,38,721.879,792,1.166667,18.533692,0.360377,0.006667,0,1.16,0,0,0,0
23,21092028,3,pedestrian,7.1,7.5,38,456.478,792.8,5.603333,4.268536,0.398634,0.01,0.006667,0,5.586667,0.594884,2.61749,0
23,21092028,3,pedestrian,7.6,7.5,38,720.924,794.4,1.223333,5.371856,0.109526,0.103333,0.006667,0.003333,1.11,0,0,0
23,21092028,3,pedestrian,7.5,7.1,38,355.085,798.8,7.393333,4.288291,0.528413,0,0,0,7.393333,0.3156,1.758341,0
23,21092028,3,car,7.1,7.3,38,738.157,800.2,1.033333,20.925134,0.360377,0,0,1.033333,0,0,0,0
23,21092028,3,pedestrian,7.1,7.3,38,580.99,805.4,3.74,5.749306,0.358373,0.22,0.006667,0.01,3.503333,4.812834,0,0
23,21092028,3,pedestrian,7.6,7.5,38,745.049,808.4,1.053333,6.238833,0.109526,0,0,0,1.053333,0,0,0
23,21092028,3,pedestrian,7.1,7.4,38,444.651,809.2,6.073333,3.79229,0.383864,0.01,0,6.063333,0,2.469813,0.164654,0
23,21092028,3,pedestrian,7.6,7.4,38,653.269,810.8,2.623333,4.631688,0.202508,0.373333,0.003333,0.393333,1.853333,0,0,0
23,21092028,3,car,7.5,7.3,38,695.937,811.8,1.93,17.65407,0.567873,0,0,1.93,0,0,0,0.690846
23,21092028,3,pedestrian,7.4,7.3,38,768.635,819.8,0.85,5.18638,0.073474,0,0,0,0.85,0,0,0
23,21092028,3,pedestrian,7.3,7.6,38,667.813,826.2,2.636667,4.028177,0.177016,0,0,0,2.636667,0,0,0
23,21092028,3,car,7.1,7.3,38,748.049,829.2,1.35,16.01676,0.360377,0,0,1.35,0,0,0,0
23,21092028,3,bike,7.6,7.1,38,733.945,830.4,1.606667,8.290712,0.222007,0,0.686667,0.92,0,0,0,7.261411
23,21092028,3,bike,7.6,7.1,38,734.385,831.4,1.616667,8.239333,0.222004,0.453333,0.463333,0.346667,0.353333,0,0,11.546392
23,21092028,3,pedestrian,7.1,7.4,38,544.47,832.6,4.8,4.798314,0.383865,0,0,0,4.8,5.138889,1.319444,0
23,21092028,3,car,7.5,7.3,38,705.399,834,2.143333,15.896914,0.567873,0,0,2.143333,0,0,0,1.244168
23,21092028,3,car,7.1,7.3,38,764.872,834.4,1.156667,18.693924,0.360377,0.026667,0.143333,0.986667,0,0,0,2.017291
23,21092028,3,pedestrian,7.4,7.3,38,786.626,834.4,0.793333,5.556835,0.073474,0,0,0,0.793333,0,0,0
23,21092028,3,bike,7.1,7.6,38,776.009,843.2,1.116667,11.928711,0.222007,0,0.476667,0.003333,0.636667,0,0,8.358209
23,21092028,3,pedestrian,7.5,7.1,38,500.489,844.2,5.726667,5.536337,0.528413,0.016667,0,0.033333,5.676667,0.582072,2.270081,0
23,21092028,3,bike,7.1,7.6,38,782.505,847.8,1.086667,12.258046,0.222007,0,0.463333,0.003333,0.62,0,0,4.601227
23,21092028,3,pedestrian,7.5,7.6,38,751.21,853,1.693333,3.880849,0.109526,0,0,1.693333,0,0,0,0
23,21092028,3,pedestrian,7.5,7.6,38,762.988,854.2,1.52,4.3234,0.109526,0.136667,0.003333,0.393333,0.986667,0,0,0
23,21092028,3,car,7.3,7.1,38,786.944,856.2,1.153333,14.241354,0.27375,0,1.153333,0,0,0,0,0
23,21092028,3,car,7.3,7.1,38,796.176,856.8,1.01,16.262405,0.27375,0.173333,0.236667,0.6,0,0,0,0
23,21092028,3,car,7.1,7.6,38,776.43,857.8,1.353333,16.687517,0.376396,0,0,1.353333,0,0,0,0
23,21092028,3,car,7.1,7.6,38,783.954,858.4,1.24,18.212727,0.376396,0.016667,0.136667,1.086667,0,0,0,0.806452
23,21092028,3,pedestrian,7.3,7.5,38,596.708,863.8,4.45,3.86349,0.286542,0,0,4.45,0,0.599251,0,0
23,21092028,3,car,7.3,7.1,38,818.207,865,0.776667,21.148105,0.27375,0,0,0.776667,0,0,0,0
23,21092028,3,pedestrian,7.4,7.5,38,574.807,866,4.85,4.227252,0.341703,0.086667,0.003333,0.73,4.03,0.618557,0,0
23,21092028,3,pedestrian,7.3,7.5,38,628.202,867.6,3.986667,4.312506,0.286542,0.49,0.01,0.02,3.466667,1.003344,0,0
23,21092028,3,pedestrian,7.4,7.5,38,619.942,869.2,4.153333,4.936321,0.341703,0.59,0.01,0.003333,3.55,0.963082,0,0
23,21092028,3,pedestrian,7.3,7.4,38,795.087,871.6,1.273333,5.82314,0.12358,0,0,0,1.273333,2.356021,0,0
23,21092028,3,pedestrian,7.1,7.5,38,536.69,872.2,5.59,4.278717,0.398634,0.18,0.006667,0.01,5.393333,0.178891,12.34347,0
23,21092028,3,car,7.3,7.1,38,821.613,873,0.853333,19.24808,0.27375,0,0,0.853333,0,0,0,0.78125
23,21092028,3,pedestrian,7.1,7.5,38,599.585,873.8,4.57,5.233705,0.398634,0.356667,0.013333,0.003333,4.196667,0.510576,2.042305,0
23,21092028,3,pedestrian,7.5,7.3,38,572.767,877.6,5.08,3.384356,0.286542,1.286667,0.016667,0.82,2.956667,2.493438,0,0
23,21092028,3,bike,7.1,7.6,38,794.549,879.8,1.42,9.38057,0.222007,0,0.61,0.81,0,0,0,4.225352
23,21092028,3,bike,7.1,7.6,38,805.707,880.6,1.246667,10.684821,0.222007,0.023333,0.51,0.163333,0.55,1.069519,0,4.278075
23,21092028,3,bike,7.6,7.1,38,825.327,881,0.926667,14.374543,0.222007,0,0.396667,0,0.53,0,0,2.158273
23,21092028,3,pedestrian,7.5,7.3,38,589.671,892.6,5.046667,3.406708,0.286542,0.826667,0.01,0.006667,4.203333,2.575958,0,0
23,21092028,3,pedestrian,7.6,7.3,38,740.594,894,2.556667,4.154222,0.177016,0.566667,0.003333,0.01,1.976667,0,0,0
23,21092028,3,car,7.1,7.3,38,820.526,896,1.256667,17.206335,0.360377,0,0,1.256667,0,0,0,1.061008
23,21092028,3,bike,7.1,7.5,38,739.375,897.6,2.636667,9.726668,0.427433,0,0.68,1.956667,0,0,0,4.045512
23,21092028,3,pedestrian,7.5,7.1,38,501.943,899.2,6.62,4.789239,0.528413,0.006667,0,0,6.613333,0.151057,3.423968,0
23,21092028,3,pedestrian,7.5,7.1,38,521.887,901,6.316667,5.019224,0.528413,0.296667,0.01,0.023333,5.986667,0.05277,3.48285,0
23,21092028,3,car,7.3,7.6,38,802.618,907.4,1.743333,20.50202,0.595698,0.063333,0.043333,1.636667,0,0,0,0.764818
23,21092028,3,bike,7.1,7.6,38,808.308,913.2,1.746667,7.626189,0.222007,0,0.75,0.996667,0,0,0,3.244275
23,21092028,3,bike,7.1,7.6,38,813.831,913.8,1.663333,8.00826,0.222007,0.173333,0.63,0.86,0,0,0,3.206413
23,21092028,3,bike,7.1,7.6,38,837.322,915.6,1.303333,10.220262,0.222007,0,0.56,0,0.743333,0,0,1.790281
23,21092028,3,bike,7.1,7.6,38,847.206,916.4,1.15,11.582962,0.222007,0.006667,0.483333,0.07,0.59,0,0,2.028986
23,21092028,3,pedestrian,7.4,7.3,38,867.973,919.6,0.86,5.126073,0.073474,0.03,0,0,0.83,0,0,0
23,21092028,3,car,7.1,7.3,38,823.087,921.8,1.643333,13.157788,0.360377,0,1.643333,0,0,0,0,0.608519
23,21092028,3,car,7.1,7.3,38,853.749,921.8,1.133333,19.078765,0.360377,0.126667,0.183333,0.823333,0,0,0,1.176471
23,21092028,3,pedestrian,7.1,7.6,38,698.706,926.8,3.8,4.564858,0.289108,0,0,0,3.8,0.614035,5.175439,0
23,21092028,3,pedestrian,7.5,7.4,38,551.944,928.2,6.27,2.985967,0.312034,0.03,0,6.24,0,1.701223,0,0
23,21092028,3,pedestrian,7.5,7.4,38,597.376,929.8,5.54,3.379428,0.312034,1.593333,0.02,0.7,3.226667,1.805054,0,0
23,21092028,3,pedestrian,7.1,7.5,38,618.385,930.2,5.196667,4.602572,0.398634,0,0,0,5.196667,0,2.43746,0
23,21092028,3,pedestrian,7.5,7.3,38,692.404,931.2,3.976667,4.323352,0.286542,0.85,0,0.243333,2.883333,0,0,0
23,21092028,3,pedestrian,7.1,7.5,38,635.884,932.2,4.936667,4.844976,0.398634,0.14,0,0.01,4.786667,0,2.363268,0
23,21092028,3,pedestrian,7.5,7.4,38,618.878,932.2,5.22,3.586596,0.312034,1,0.013333,0.01,4.196667,1.340996,0,0
23,21092028,3,pedestrian,7.5,7.4,38,606.828,934,5.45,3.435235,0.312034,1.513333,0.016667,0.846667,3.073333,1.529052,0.550459,0
23,21092028,3,bike,7.1,7.6,38,861.986,935,1.216667,10.948204,0.222005,0,0.523333,0,0.693333,0,0,1.917808
23,21092028,3,pedestrian,7.5,7.4,38,652.542,937,4.74,3.949792,0.312034,0.43,0.006667,0.003333,4.3,0,0.632911,0
23,21092028,3,pedestrian,7.5,7.3,38,694.805,938.6,4.06,4.234613,0.286542,0.873333,0.01,0.006667,3.17,0.328407,0,0
23,21092028,3,pedestrian,7.5,7.4,38,651.524,939,4.79,3.908566,0.312034,0.743333,0.006667,0.01,4.03,0,0.626305,0
23,21092028,3,pedestrian,7.5,7.4,38,638.681,942,5.053333,3.704887,0.312034,0.503333,0.006667,0.003333,4.54,0,0,0
23,21092028,3,pedestrian,7.5,7.4,38,673.052,944.2,4.516667,4.145095,0.312034,0.126667,0.003333,0.006667,4.38,0,0,0
23,21092028,3,pedestrian,7.5,7.6,38,853.182,944.8,1.526667,4.304522,0.109526,0,0,0,1.526667,0,0,0
23,21092028,3,pedestrian,7.3,7.5,38,716.994,945.8,3.813333,4.508531,0.286542,0,0,0,3.813333,0.961538,0.611888,0
23,21092028,3,pedestrian,7.5,7.3,38,736.362,947.2,3.513333,4.893509,0.286542,0.09,0,0,3.423333,0,0,0
23,21092028,3,pedestrian,7.4,7.6,38,802.902,948.4,2.423333,5.748534,0.232177,0.046667,0.003333,0,2.373333,0,0.550206,0
23,21092028,3,bike,7.1,7.6,38,885.329,953,1.126667,11.822849,0.222007,0,0.483333,0,0.643333,0,0,2.95858
23,21092028,3,pedestrian,7.5,7.6,38,869.466,955.2,1.426667,4.606241,0.109526,0,0,0,1.426667,0,0,0
23,21092028,3,pedestrian,7.6,7.5,38,866.79,960.4,1.56,4.212545,0.109526,0,0,0,1.56,0,0,0
23,21092028,3,pedestrian,7.5,7.1,38,551.728,961.2,6.823333,4.646522,0.528413,0.063333,0.003333,0.003333,6.753333,0.97704,10.258915,0
23,21092028,3,car,7.1,7.3,38,856.11,962.2,1.766667,12.23923,0.360377,0,1.766667,0,0,0,0,1.320755
23,21092028,3,pedestrian,7.5,7.1,38,613.058,962.8,5.826667,5.441316,0.528412,0.37,0.006667,0.003333,5.446667,1.201373,4.8627,0
23,21092028,3,car,7.1,7.3,38,862.539,963,1.673333,12.921895,0.360377,0.016667,1.656667,0,0,0,0,1.593625
23,21092028,3,car,7.5,7.3,38,826.268,966.4,2.333333,14.602451,0.567873,0,2.333333,0,0,0,0,1.714286
23,21092028,3,pedestrian,7.3,7.5,38,746.275,970,3.726667,4.61338,0.286542,0,0,0,3.726667,0,0,0
23,21092028,3,pedestrian,7.5,7.4,38,673.076,971.8,4.976667,3.761962,0.312034,0.036667,0,4.94,0,0,0,0
23,21092028,3,pedestrian,7.3,7.1,38,637.287,972.2,5.58,5.222471,0.48569,0,0,0,5.58,1.971326,0,0
23,21092028,3,pedestrian,7.5,7.4,38,703.095,973.6,4.506667,4.15429,0.312033,0.67,0.006667,1.166667,2.663333,0.221893,0,0
23,21092028,3,pedestrian,7.5,7.4,38,697.262,975.4,4.633333,4.040725,0.312034,1.196667,0.006667,0.01,3.42,0,0,0
23,21092028,3,pedestrian,7.6,7.4,38,790.643,978.2,3.123333,3.890223,0.202508,0.406667,0.006667,0.006667,2.703333,0,0,0
23,21092028,3,pedestrian,7.3,7.4,38,886.602,980,1.553333,4.773475,0.12358,0.146667,0,0.003333,1.403333,0,0,0
23,21092028,3,pedestrian,7.5,7.6,38,890.65,988.4,1.626667,4.0399,0.109526,0,0,0,1.626667,0,0,0
23,21092028,3,car,7.1,7.3,38,890.192,1000.6,1.84,11.751435,0.360377,0,1.84,0,0,0,0,0
23,21092028,3,car,7.1,7.3,38,892.26,1001.4,1.816667,11.902366,0.360377,0.09,1.726667,0,0,0,0,0.183486
23,21092028,3,pedestrian,7.3,7.6,38,881.86,1022.4,2.34,4.538872,0.177016,0.126667,0.003333,0.246667,1.963333,0,0,0
23,21092028,3,pedestrian,7.1,7.6,38,851.408,1026.2,2.91,5.960983,0.289108,0,0,0,2.91,0,1.832761,0
23,21092028,3,pedestrian,7.5,7.4,38,770.192,1039.8,4.493333,4.166624,0.312034,0.59,0.016667,0.003333,3.883333,0.593472,0,0
23,21092028,3,pedestrian,7.5,7.4,38,788.727,1041.4,4.21,4.447035,0.312034,0.71,0.026667,0.01,3.463333,0.554236,0,0
23,21092028,3,pedestrian,7.5,7.4,38,784.414,1044,4.323333,4.330463,0.312034,0.436667,0.013333,0.003333,3.87,0.616808,0,0
23,21092028,3,pedestrian,7.5,7.4,38,797.762,1045.8,4.133333,4.529518,0.312033,0.256667,0.01,0.003333,3.863333,0.483871,0,0
23,21092028,3,pedestrian,7.1,7.3,38,741.861,1065.4,5.39,3.989314,0.358373,0,0,5.39,0,3.834261,2.164502,0
23,21092028,3,pedestrian,7.5,7.3,38,814.806,1067.2,4.203333,4.090213,0.286542,0.336667,0.02,1.246667,2.6,0,0,0
23,21092028,3,pedestrian,7.5,7.3,38,864.146,1068.8,3.41,5.041798,0.286542,0.343333,0.01,0.003333,3.053333,0,0,0
23,21092028,3,pedestrian,7.5,7.4,38,835.646,1070.4,3.91,4.788244,0.312034,0.606667,0.016667,0.006667,3.28,0,0,0
23,21092028,3,pedestrian,7.1,7.5,38,721.994,1075.8,5.896667,4.056195,0.398634,0,0,0,5.896667,0,5.483324,0
23,21092028,3,pedestrian,7.1,7.5,38,726.582,1077.6,5.85,4.08854,0.398633,1.02,0.036667,0.043333,4.75,0,4.957265,0
23,21092028,3,pedestrian,7.1,7.5,38,730.823,1080.4,5.823333,4.107275,0.398634,0.093333,0.003333,0.013333,5.713333,0,5.151689,0
23,21092028,3,pedestrian,7.1,7.3,38,856.641,1104.6,4.13,5.206394,0.358373,0,0,0,4.13,1.210654,0.807103,0
23,21092028,3,pedestrian,7.3,7.1,38,761.916,1108.6,5.776667,5.044667,0.485689,0,0,0,5.776667,0.634737,0,0
23,21092028,3,pedestrian,7.3,7.1,38,767.205,1110.4,5.716667,5.097619,0.48569,0.28,0.01,0.02,5.406667,0.524781,0,0
23,21092028,3,pedestrian,7.1,7.4,38,818.172,1124.2,5.1,4.516058,0.383865,0,0,0,5.1,2.287582,1.633987,0
23,21092028,3,pedestrian,7.3,7.5,38,844.639,1129.4,4.743333,3.624567,0.286542,0,0,4.743333,0,0,0,0
23,21092028,3,pedestrian,7.4,7.5,38,840.03,1131.4,4.853333,4.224345,0.341703,0.346667,0.003333,0.726667,3.776667,0,0,0
23,21092028,3,pedestrian,7.5,7.1,38,668.777,1133.6,7.746667,4.092697,0.528413,0,0,0,7.746667,0.215146,1.635112,0
23,21092028,3,pedestrian,7.6,7.1,38,810.19,1135.6,5.423333,4.634257,0.418885,0.106667,0.003333,0.006667,5.306667,0,1.53657,0
23,21092028,3,pedestrian,7.4,7.5,38,866.503,1148.2,4.693333,4.368363,0.341703,0,0,0,4.693333,0,0,0
23,21092028,3,pedestrian,7.1,7.5,38,860.832,1160,4.983333,4.7996,0.398633,0,0,0,4.983333,0,0,0
23,21092028,3,pedestrian,7.1,7.3,38,882.599,1172.4,4.83,4.451844,0.358373,0,0,0,4.83,0,0,0
23,21092028,3,pedestrian,7.1,7.3,38,885.455,1174.4,4.813333,4.467243,0.358372,0.253333,0.016667,0.01,4.533333,0,0,0
23,21092028,3,pedestrian,7.4,7.1,38,792.288,1187.4,6.583333,4.929271,0.540851,0,0,0,6.583333,0.759494,0,0
23,21092028,3,pedestrian,7.3,7.1,38,876.5,1224.2,5.793333,5.030159,0.48569,0,0,0,5.793333,1.668585,0,0
23,21092028,3,pedestrian,7.3,7.1,38,887.35,1225.8,5.64,5.166912,0.48569,0.453333,0.003333,0.04,5.143333,1.77305,0,0
23,21092028,3,pedestrian,7.3,7.1,38,895.144,1254.8,5.993333,4.8623,0.48569,0,0,0,5.993333,0.945495,0,0
23,21092028,3,pedestrian,7.5,7.1,38,769.827,1292.4,8.706667,3.641435,0.528413,0,0,8.706667,0,0.191424,0.344564,0
23,21092028,3,pedestrian,7.5,7.1,38,771.943,1294.2,8.703333,3.64283,0.528413,1.883333,0.036667,2.68,4.103333,0.268097,0.191498,0
23,21092028,3,pedestrian,7.5,7.1,38,798.984,1296.2,8.286667,3.825992,0.528412,1.936667,0.04,0.553333,5.756667,0.241352,0,0
23,21092028,3,pedestrian,7.5,7.1,38,814.649,1312.6,8.296667,3.821351,0.528408,0,0,8.296667,0,0,0,0
23,21092028,3,pedestrian,7.5,7.1,38,822.451,1314.8,8.203333,3.864862,0.528413,1.033333,0.046667,2.293333,4.83,0,0,0
23,21092028,3,pedestrian,7.5,7.1,38,835.691,1316.4,8.01,3.958148,0.528413,1.843333,0.026667,0.04,6.1,0,0,0
23,21092028,3,pedestrian,7.5,7.1,38,833.391,1319.8,8.106667,3.91095,0.528413,0.343333,0.02,0.056667,7.686667,0,0,0
23,21092028,3,pedestrian,7.5,7.1,38,880.262,1372.4,8.2,3.866434,0.528413,0,0,8.2,0,0,0,0
