run_id,seed,demand_factor,mode,origin_zone,destination_zone,flow_slot,scheduled_spawn_time_s,arrival_time_s,trajectory_duration_min,average_speed_kmh,trajectory_distance_km,congestion_duration_min,low_speed_duration_min,intermediate_speed_duration_min,high_speed_duration_min,copresence_car_percentage,copresence_bike_percentage,copresence_pedestrian_percentage
26,21092031,3,car,7.1,7.3,38,13.6,83.6,1.166667,18.533692,0.360377,0,0,1.166667,0,0,0,0.571429
26,21092031,3,car,7.3,7.1,38,35.516,91,0.923333,17.78884,0.27375,0,0,0.923333,0,0,0,0
26,21092031,3,pedestrian,7.5,7.4,38,16.679,95.4,1.31,5.495435,0.119984,0,0,0,1.31,3.053435,0,0
26,21092031,3,pedestrian,7.3,7.4,38,19.026,103.4,1.403333,5.283403,0.123573,0,0,0,1.403333,0,0,0
26,21092031,3,pedestrian,7.5,7.4,38,24.246,112.4,1.466667,4.908423,0.119984,0.18,0,0.37,0.916667,1.363636,0,0
26,21092031,3,pedestrian,7.5,7.4,38,40.783,115,1.236667,5.82131,0.119984,0.05,0,0,1.186667,0,0,0
26,21092031,3,bike,7.1,7.6,38,64.046,133,1.146667,11.616572,0.222006,0,0.49,0.003333,0.653333,0,0,0
26,21092031,3,pedestrian,7.6,7.3,38,8.597,134.6,2.1,5.057575,0.177015,0,0,0,2.1,0,0,0
26,21092031,3,pedestrian,7.6,7.3,38,9.857,136.4,2.106667,5.041595,0.177016,0.043333,0,0.003333,2.06,0,0,0
26,21092031,3,pedestrian,7.4,7.3,38,85.983,139,0.883333,4.990667,0.073474,0,0,0,0.883333,0,0,0
26,21092031,3,pedestrian,7.6,7.5,38,27.492,142.8,1.92,3.422693,0.109526,0,0,1.92,0,0,0,0
26,21092031,3,pedestrian,7.4,7.3,38,86.977,144,0.95,4.640445,0.073474,0.016667,0,0,0.933333,0,0,0
26,21092031,3,pedestrian,7.6,7.5,38,50.234,144.8,1.573333,4.176846,0.109526,0.06,0.006667,0.253333,1.253333,0,0,0
26,21092031,3,pedestrian,7.5,7.6,38,60.472,145.2,1.41,4.660688,0.109526,0,0,0,1.41,0,0,0
26,21092031,3,pedestrian,7.5,7.6,38,78.597,148.2,1.16,5.665129,0.109526,0,0,0,1.16,0,0,0
26,21092031,3,car,7.5,7.3,38,32.492,152.8,2.003333,17.007847,0.567873,0,0,2.003333,0,0,0,1.497504
26,21092031,3,car,7.1,7.3,38,76.963,153.2,1.27,17.02568,0.360377,0.08,0.3,0.89,0,0,0,1.312336
26,21092031,3,car,7.1,7.3,38,75.092,153.8,1.31,16.505832,0.360377,0.153333,0.246667,0.91,0,0,0,1.272265
26,21092031,3,car,7.1,7.3,38,86.256,154.4,1.133333,19.0788,0.360377,0.05,0.09,0.993333,0,0,0,1.470588
26,21092031,3,car,7.1,7.6,38,72.88,166.2,1.553333,14.538915,0.376396,0,1.553333,0,0,0,0,0
26,21092031,3,car,7.3,7.6,38,57.328,166.8,1.823333,19.602469,0.595697,0.113333,0.236667,1.473333,0,0,0,0
26,21092031,3,pedestrian,7.6,7.5,38,62.425,170.8,1.803333,3.644124,0.109526,0,0,1.803333,0,0,0,0
26,21092031,3,car,7.1,7.3,38,96.987,170.8,1.23,17.579382,0.360377,0,0,1.23,0,0,0,0.271003
26,21092031,3,pedestrian,7.6,7.5,38,74.269,174,1.66,3.958777,0.109526,0,0,1.66,0,0,0,0
26,21092031,3,pedestrian,7.6,7.5,38,76.944,176.4,1.656667,3.966743,0.109526,0.023333,0,0.646667,0.986667,0,0,0
26,21092031,3,bike,7.6,7.1,38,105.301,177.2,1.196667,11.131262,0.222007,0,0.51,0.003333,0.683333,0,0,5.571031
26,21092031,3,pedestrian,7.5,7.6,38,95.115,177.8,1.376667,4.773538,0.109526,0,0,0,1.376667,0,0,0
26,21092031,3,car,7.1,7.3,38,97.411,178,1.34,16.136299,0.360377,0,0.003333,1.336667,0,0,0,0
26,21092031,3,car,7.1,7.3,38,98.715,178.4,1.326667,16.298465,0.360377,0.046667,0.34,0.94,0,0,0,0
26,21092031,3,car,7.3,7.5,38,42.684,179.6,2.28,16.391448,0.622875,0,0,2.28,0,0,0,0.146199
26,21092031,3,bike,7.1,7.6,38,119.02,182.4,1.053333,12.645959,0.222007,0.03,0.45,0,0.573333,1.265823,0,2.531646
26,21092031,3,pedestrian,7.4,7.6,38,39.321,182.4,2.383333,5.845013,0.232177,0.07,0.003333,0,2.31,1.678322,0,0
26,21092031,3,car,7.1,7.3,38,115.802,188.6,1.21,17.869947,0.360377,0,0,1.21,0,0,0,1.37741
26,21092031,3,car,7.3,7.1,38,143.045,189.2,0.766667,21.423943,0.27375,0,0,0.766667,0,0,0,0
26,21092031,3,pedestrian,7.6,7.5,38,116.137,189.8,1.226667,5.357259,0.109526,0,0,0,1.226667,0,0,0
26,21092031,3,pedestrian,7.3,7.5,38,8.463,191.4,3.046667,5.643063,0.286542,0.066667,0.01,0,2.97,0,0,0
26,21092031,3,car,7.1,7.6,38,107.356,195,1.46,15.468343,0.376396,0,0,1.46,0,0,0,0
26,21092031,3,pedestrian,7.5,7.4,38,94.309,198.2,1.73,4.161284,0.119984,0,0,0,1.73,3.27553,2.119461,0
26,21092031,3,pedestrian,7.5,7.3,38,49.913,201.6,2.526667,3.26946,0.137681,0,0,2.526667,0,0,1.319261,0
26,21092031,3,pedestrian,7.5,7.3,38,64.912,203.6,2.31,3.576119,0.137681,0.326667,0,0.836667,1.146667,0,1.298701,0
26,21092031,3,pedestrian,7.5,7.3,38,69.671,205.2,2.256667,3.660619,0.13768,0.673333,0,0.003333,1.58,1.624815,1.477105,0
26,21092031,3,pedestrian,7.5,7.6,38,122.272,210.4,1.466667,4.480597,0.109526,0,0,0,1.466667,1.136364,0,0
26,21092031,3,pedestrian,7.5,7.6,38,123.303,211.6,1.47,4.470456,0.109526,0.18,0.013333,0,1.276667,1.360544,0,0
26,21092031,3,pedestrian,7.5,7.6,38,132.175,213.4,1.353333,4.85584,0.109526,0.146667,0,0,1.206667,0,0,0
26,21092031,3,car,7.1,7.3,38,139.515,214.8,1.253333,17.252107,0.360377,0,0,1.253333,0,0,0,0
26,21092031,3,car,7.1,7.6,38,117.081,216.6,1.656667,13.632059,0.376396,0,1.656667,0,0,0,0.804829,0.603622
26,21092031,3,car,7.1,7.6,38,137.196,217.2,1.333333,16.937829,0.376396,0.12,0.216667,0.996667,0,0,0,1.25
26,21092031,3,bike,7.1,7.6,38,148.635,217.4,1.143333,11.650504,0.222007,0,0.49,0,0.653333,0,0,2.332362
26,21092031,3,bike,7.1,7.5,38,103.184,220,1.946667,13.174267,0.427432,0,0.5,0.003333,1.443333,0,0,4.965753
26,21092031,3,car,7.3,7.1,38,178.197,221.2,0.716667,22.918645,0.27375,0,0,0.716667,0,0,0,0
26,21092031,3,bike,7.6,7.1,38,150.428,230.6,1.333333,9.990307,0.222007,0,0.57,0.763333,0,0.5,0,5.5
26,21092031,3,pedestrian,7.6,7.4,38,53.035,235,3.03,4.010054,0.202508,0,0,0,3.03,0,0,0
26,21092031,3,car,7.1,7.3,38,157.436,236.2,1.31,16.505832,0.360377,0,0,1.31,0,0,0,0
26,21092031,3,car,7.1,7.3,38,158.776,236.8,1.3,16.6328,0.360377,0.096667,0.293333,0.91,0,0,0,0
26,21092031,3,pedestrian,7.5,7.4,38,154.291,236.8,1.373333,5.242005,0.119984,0.03,0.003333,0,1.34,2.184466,0,0
26,21092031,3,bike,7.5,7.1,38,111.199,240.6,2.156667,11.891491,0.427433,0,0.553333,0.003333,1.6,1.391036,0,8.655332
26,21092031,3,car,7.1,7.3,38,169.51,245.2,1.26,17.160826,0.360377,0,0,1.26,0,0,0,0.793651
26,21092031,3,pedestrian,7.3,7.4,38,184.545,248,1.056667,7.017159,0.12358,0,0,0,1.056667,0,0,0
26,21092031,3,pedestrian,7.5,7.4,38,179.565,257,1.29,5.580636,0.119984,0,0,0,1.29,0.258398,1.29199,0
26,21092031,3,pedestrian,7.5,7.6,38,148.954,263,1.9,3.45872,0.109526,0,0,1.9,0,0,0,0
26,21092031,3,car,7.3,7.1,38,198.31,263,1.076667,15.255445,0.27375,0,0,1.076667,0,0,0,0
26,21092031,3,pedestrian,7.5,7.6,38,170.598,264.2,1.56,4.212193,0.109517,0.12,0,0.333333,1.106667,0,0,0
26,21092031,3,pedestrian,7.5,7.4,38,187.984,265.4,1.29,5.580636,0.119984,0,0,0,1.29,0,1.29199,0
26,21092031,3,car,7.5,7.3,38,124.052,266,2.363333,14.417089,0.567873,0,2.363333,0,0,0,0,1.974612
26,21092031,3,bike,7.1,7.6,38,191.432,267.6,1.266667,10.51611,0.222007,0,0.543333,0,0.723333,0,0,0
26,21092031,3,car,7.1,7.6,38,193.541,270.6,1.283333,17.597751,0.376396,0,0,1.283333,0,0,0,1.038961
26,21092031,3,bike,7.6,7.1,38,199.73,272,1.203333,11.069585,0.222007,0,0.513333,0.003333,0.686667,0,0,4.98615
26,21092031,3,bike,7.1,7.6,38,205.507,275,1.156667,11.516205,0.222007,0,0.493333,0.003333,0.66,0,0,1.440922
26,21092031,3,bike,7.6,7.1,38,207.12,275.2,1.133333,11.753303,0.222007,0.126667,0.433333,0.01,0.563333,0,0,9.117647
26,21092031,3,car,7.1,7.3,38,199.107,276.8,1.293333,16.718536,0.360377,0,0,1.293333,0,0,0,3.608247
26,21092031,3,pedestrian,7.5,7.4,38,195.363,279.8,1.406667,5.117787,0.119984,0,0,0,1.406667,0,1.184834,0
26,21092031,3,car,7.1,7.5,38,209.804,280.2,1.17,20.696086,0.403574,0,0,1.17,0,0,0,3.418803
26,21092031,3,pedestrian,7.1,7.5,38,1.806,280.6,4.643333,5.151047,0.398634,0,0,0,4.643333,0.5743,1.076813,0
26,21092031,3,car,7.5,7.3,38,156.028,281.2,2.083333,16.354714,0.567872,0,0,2.083333,0,0,0,1.28
26,21092031,3,car,7.1,7.3,38,206.547,281.6,1.25,17.298112,0.360377,0.066667,0.22,0.963333,0,0,0,2.133333
26,21092031,3,pedestrian,7.6,7.5,38,207.739,282.2,1.24,5.299654,0.109526,0.083333,0.003333,0.006667,1.146667,0.537634,0,0
26,21092031,3,pedestrian,7.5,7.3,38,190.605,292.8,1.7,4.859315,0.137681,0,0,0,1.7,0,1.176471,0
26,21092031,3,pedestrian,7.6,7.5,38,222.564,296.4,1.23,5.34274,0.109526,0,0,0,1.23,0,0,0
26,21092031,3,car,7.1,7.6,38,219.328,296.6,1.286667,17.552161,0.376396,0,0,1.286667,0,0,0,0
26,21092031,3,car,7.3,7.1,38,234.536,298.4,1.063333,15.446735,0.27375,0,0,1.063333,0,0,0,1.567398
26,21092031,3,car,7.3,7.1,38,249.827,299,0.816667,20.112269,0.27375,0.006667,0.006667,0.803333,0,0,0,0
26,21092031,3,car,7.3,7.1,38,249.815,299.6,0.826667,19.868986,0.27375,0.03,0.113333,0.683333,0,0,0,0
26,21092031,3,car,7.1,7.3,38,231.335,303.4,1.2,18.018837,0.360377,0,0,1.2,0,0,0,0.833333
26,21092031,3,pedestrian,7.5,7.6,38,237.749,313.2,1.256667,5.229367,0.109526,0,0,0,1.256667,0,0,0
26,21092031,3,pedestrian,7.5,7.6,38,238.655,316.6,1.296667,5.068049,0.109526,0.013333,0,0,1.283333,0,0,0
26,21092031,3,pedestrian,7.3,7.1,38,9.929,317,5.116667,5.695384,0.48569,0.003333,0,0,5.113333,0.456026,0,0
26,21092031,3,pedestrian,7.6,7.5,38,241.668,317.8,1.266667,5.188081,0.109526,0,0,0,1.266667,0,0,0
26,21092031,3,car,7.1,7.3,38,236.932,318.8,1.363333,15.860127,0.360377,0,0,1.363333,0,0,0,2.444988
26,21092031,3,pedestrian,7.5,7.4,38,215.098,318.8,1.726667,4.169317,0.119984,0,0,0,1.726667,1.351351,0.772201,0
26,21092031,3,pedestrian,7.4,7.5,38,118.337,319.2,3.346667,6.126151,0.341703,0.143333,0,0.003333,3.2,0.59761,0,0
26,21092031,3,car,7.1,7.3,38,238.934,319.2,1.336667,16.176535,0.360377,0.09,0.373333,0.873333,0,0,0,1.995012
26,21092031,3,bike,7.1,7.6,38,226.887,319.4,1.54,8.649614,0.222007,0,0.66,0.88,0,0,0,1.948052
26,21092031,3,pedestrian,7.5,7.6,38,238.346,323.4,1.416667,4.638756,0.109526,0.053333,0,0,1.363333,0,0,0
26,21092031,3,pedestrian,7.5,7.6,38,240.992,324.6,1.393333,4.716293,0.109523,0.166667,0.003333,0.013333,1.21,0,0,0
26,21092031,3,pedestrian,7.5,7.3,38,230.438,325.6,1.583333,5.21737,0.137681,0.013333,0,0,1.57,1.473684,0,0
26,21092031,3,pedestrian,7.5,7.6,38,245.119,325.8,1.343333,4.891988,0.109526,0.253333,0,0.006667,1.083333,0,0,0
26,21092031,3,pedestrian,7.6,7.4,38,185.195,332.2,2.45,4.959372,0.202508,0,0,0,2.45,1.904762,0,0
26,21092031,3,pedestrian,7.5,7.4,38,245.246,337.8,1.54,4.674689,0.119984,0,0,0,1.54,1.298701,0,0
26,21092031,3,pedestrian,7.6,7.5,38,262.282,339.4,1.283333,5.120705,0.109526,0,0,0,1.283333,0,0,0
26,21092031,3,pedestrian,7.5,7.3,38,231.125,340.8,1.826667,4.522355,0.137681,0.02,0,0,1.806667,1.277372,0,0
26,21092031,3,pedestrian,7.6,7.5,38,263.715,341.2,1.29,5.094241,0.109526,0.073333,0.003333,0.01,1.203333,0,0,0
26,21092031,3,pedestrian,7.5,7.3,38,231.501,342.8,1.853333,4.457286,0.137681,0.056667,0.006667,0,1.79,1.258993,0,0
26,21092031,3,car,7.1,7.3,38,266.731,344.6,1.296667,16.675558,0.360377,0,0,1.296667,0,0,0,1.542416
26,21092031,3,car,7.1,7.3,38,285.814,352.4,1.106667,19.538531,0.360377,0,0,1.106667,0,0,0,0.903614
26,21092031,3,bike,7.6,7.1,38,259.46,352.6,1.55,8.593813,0.222007,0,0.663333,0.886667,0,0,0,7.311828
26,21092031,3,bike,7.1,7.6,38,256.685,353.8,1.616667,8.239429,0.222007,0,0.693333,0.923333,0,0.824742,0,2.680412
26,21092031,3,bike,7.6,7.1,38,273.722,355,1.353333,9.842667,0.222007,0,0.576667,0.776667,0,0,0,7.389163
26,21092031,3,pedestrian,7.5,7.6,38,260.088,356,1.596667,4.115806,0.109526,0,0,0,1.596667,0,0,0
26,21092031,3,car,7.3,7.1,38,311.599,362,0.84,19.553606,0.27375,0,0,0.84,0,0,0,0
26,21092031,3,car,7.6,7.3,38,276.546,368,1.523333,17.498757,0.444274,0,0,1.523333,0,0,0,2.188184
26,21092031,3,pedestrian,7.1,7.5,38,7.944,368.2,6.003333,3.984125,0.398634,0,0,6.003333,0,0,1.832315,0
26,21092031,3,pedestrian,7.5,7.6,38,280.416,369.2,1.476667,4.45027,0.109526,0,0,0,1.476667,0,0,0
26,21092031,3,pedestrian,7.1,7.5,38,20.488,370,5.823333,4.107272,0.398634,0.863333,0.043333,2.016667,2.9,0,1.946193,0
26,21092031,3,bike,7.1,7.6,38,277.983,370.2,1.536667,8.668371,0.222007,0,0.66,0.876667,0,0,0,8.67679
26,21092031,3,bike,7.1,7.6,38,281.562,371,1.49,8.939832,0.222006,0.13,0.586667,0.213333,0.56,0,0,8.277405
26,21092031,3,pedestrian,7.5,7.6,38,285.76,371.8,1.433333,4.584817,0.109526,0,0,0,1.433333,0,0,0
26,21092031,3,pedestrian,7.1,7.5,38,63.451,372,5.14,4.653302,0.398633,0.496667,0.003333,0.016667,4.623333,0,2.010376,0
26,21092031,3,pedestrian,7.5,7.3,38,256.813,372.4,1.923333,4.295062,0.137681,0.193333,0,0.523333,1.206667,3.119584,0,0
26,21092031,3,pedestrian,7.5,7.3,38,261.814,373.6,1.86,4.44131,0.137681,0.49,0,0,1.37,3.225806,0,0
26,21092031,3,pedestrian,7.3,7.5,38,149.638,373.8,3.733333,4.605142,0.286542,0.55,0.006667,0.013333,3.163333,1.428571,0,0
26,21092031,3,pedestrian,7.6,7.5,38,290.171,376,1.43,4.595504,0.109526,0.096667,0.006667,0,1.326667,0,0,0
26,21092031,3,car,7.1,7.3,38,314.727,381.8,1.116667,19.363555,0.360377,0,0,1.116667,0,0,0,1.19403
26,21092031,3,pedestrian,7.5,7.6,38,298.371,382.2,1.396667,4.705182,0.109526,0,0,0,1.396667,1.193317,0,0
26,21092031,3,pedestrian,7.5,7.4,38,247.913,382.4,2.24,3.213848,0.119984,0.026667,0.003333,2.21,0,2.529762,0,0
26,21092031,3,pedestrian,7.5,7.6,38,302.427,383.6,1.35,4.86783,0.109526,0.053333,0.003333,0.003333,1.29,0,0,0
26,21092031,3,pedestrian,7.6,7.1,38,127.264,387.2,4.33,5.804415,0.418885,0,0,0,4.33,0.307929,5.311778,0
26,21092031,3,car,7.1,7.3,38,316.872,388.4,1.19,18.170273,0.360377,0,0,1.19,0,0,0,0.560224
26,21092031,3,car,7.1,7.3,38,325.242,389,1.06,20.398717,0.360377,0.006667,0.056667,0.996667,0,0,0,0.943396
26,21092031,3,car,7.1,7.3,38,327.136,389.6,1.04,20.791,0.360377,0,0.003333,1.036667,0,0,0,0.641026
26,21092031,3,pedestrian,7.1,7.4,38,157.955,390.8,3.88,5.935981,0.38386,0,0,0,3.88,2.920962,0,0
26,21092031,3,car,7.3,7.1,38,338.664,394.4,0.926667,17.724582,0.273746,0,0,0.926667,0,0,0,0
26,21092031,3,car,7.3,7.1,38,341.089,401.2,1,16.425005,0.27375,0,0,1,0,0,0,0
26,21092031,3,pedestrian,7.5,7.4,38,332.723,408.4,1.26,5.713508,0.119984,0,0,0,1.26,0,0,0
26,21092031,3,pedestrian,7.1,7.6,38,139.025,411.6,4.54,3.820806,0.289108,0,0,4.54,0,0,6.314244,0
26,21092031,3,car,7.1,7.3,38,333.955,414.4,1.34,16.136299,0.360377,0,0,1.34,0,0,0,0.497512
26,21092031,3,pedestrian,7.5,7.1,38,3.691,416,6.87,4.587617,0.525282,0,0,0,6.87,1.795245,0,0
26,21092031,3,pedestrian,7.3,7.1,38,48.778,417.4,6.143333,4.743579,0.48569,0.883333,0.02,0.063333,5.176667,1.356484,0,0
26,21092031,3,pedestrian,7.1,7.5,38,76.399,417.8,5.69,4.20352,0.398634,0,0,0,5.69,0.117165,5.799649,0
26,21092031,3,car,7.5,7.3,38,298.228,418.2,1.996667,17.064633,0.567873,0,0,1.996667,0,0,0,3.005008
26,21092031,3,pedestrian,7.4,7.5,38,193.792,419.4,3.76,5.452702,0.341703,0.15,0.006667,0.003333,3.6,0,0,0
26,21092031,3,pedestrian,7.5,7.3,38,300.092,421.4,2.02,4.089523,0.137681,0,0,0,2.02,0,0,0
26,21092031,3,pedestrian,7.5,7.3,38,314.563,428.2,1.893333,4.362705,0.137668,0,0,0,1.893333,0,0,0
26,21092031,3,pedestrian,7.5,7.6,38,365.687,428.8,1.05,6.258639,0.109526,0,0,0,1.05,0,0,0
26,21092031,3,car,7.1,7.3,38,369.658,432,1.036667,20.857853,0.360377,0,0,1.036667,0,0,0,1.286174
26,21092031,3,bike,7.1,7.6,38,361.558,437.2,1.26,10.571754,0.222007,0.003333,0.536667,0.003333,0.716667,0,0,7.671958
26,21092031,3,bike,7.1,7.6,38,366.816,438,1.183333,11.256684,0.222007,0,0.5,0.053333,0.63,0,0,7.323944
26,21092031,3,pedestrian,7.5,7.4,38,357.777,440.2,1.373333,5.242005,0.119984,0.02,0,0.06,1.293333,0,0,0
26,21092031,3,pedestrian,7.3,7.6,38,322.425,448.2,2.093333,5.073707,0.177016,0.093333,0.003333,0.006667,1.99,0,0,0
26,21092031,3,pedestrian,7.6,7.5,38,378.841,451,1.2,5.476309,0.109526,0,0,0,1.2,0,0,0
26,21092031,3,pedestrian,7.5,7.4,38,364.36,456.6,1.536667,4.684829,0.119984,0,0,0,1.536667,0,0,0
26,21092031,3,car,7.1,7.3,38,397.659,462.8,1.083333,19.95936,0.360377,0,0,1.083333,0,0,0,1.538462
26,21092031,3,pedestrian,7.5,7.3,38,342.082,467,2.08,3.971556,0.137681,0,0,2.08,0,0,0,0
26,21092031,3,pedestrian,7.5,7.3,38,357.709,468.8,1.85,4.465317,0.137681,0.096667,0.003333,0.44,1.31,0,0,0
26,21092031,3,bike,7.1,7.6,38,387.568,469,1.356667,9.818457,0.222006,0,0.583333,0.773333,0,1.228501,0,0
26,21092031,3,pedestrian,7.5,7.3,38,360.337,470.8,1.84,4.489585,0.137681,0.223333,0.006667,0,1.61,0,0,0
26,21092031,3,bike,7.1,7.5,38,358.367,473.2,1.913333,13.403824,0.427433,0.05,0.506667,0,1.356667,0,0,10.801394
26,21092031,3,pedestrian,7.3,7.4,38,403.63,476.2,1.206667,6.14486,0.12358,0.013333,0,0,1.193333,0,0,0
26,21092031,3,pedestrian,7.4,7.3,38,438.144,484.6,0.773333,5.700546,0.073474,0,0,0,0.773333,0,0,0
26,21092031,3,pedestrian,7.5,7.4,38,385.596,490.4,1.746667,4.12154,0.119983,0.056667,0.01,0.48,1.2,2.099237,0,0
26,21092031,3,pedestrian,7.1,7.3,38,197.377,497.8,5.006667,4.294755,0.358373,0,0,0,5.006667,3.395473,1.997337,0
26,21092031,3,pedestrian,7.5,7.4,38,407.269,499.6,1.536667,4.684829,0.119984,0.14,0.003333,0.003333,1.39,1.084599,1.084599,0
26,21092031,3,pedestrian,7.1,7.3,38,211.682,499.6,4.796667,4.482781,0.358373,0.57,0.046667,0.013333,4.166667,3.33565,1.250869,0
26,21092031,3,car,7.3,7.6,38,386.716,500.6,1.896667,18.844567,0.595698,0,0,1.896667,0,0,0,1.405975
26,21092031,3,car,7.5,7.1,38,420.091,500.8,1.343333,18.673081,0.41807,0,0.003333,1.34,0,0,0.248139,1.240695
26,21092031,3,pedestrian,7.5,7.1,38,18.874,501.2,8.036667,3.921526,0.525267,0,0,8.036667,0,2.364164,0,0
26,21092031,3,pedestrian,7.1,7.3,38,236.882,501.6,4.41,4.875829,0.358373,0.273333,0.003333,0.003333,4.13,3.401361,2.721088,0
26,21092031,3,pedestrian,7.5,7.1,38,40.723,502.4,7.693333,4.096654,0.525282,2.006667,0.026667,2.423333,3.236667,2.079723,0,0
26,21092031,3,pedestrian,7.5,7.4,38,407.967,503,1.583333,4.54675,0.119984,0.233333,0.003333,0.003333,1.343333,0.631579,1.052632,0
26,21092031,3,pedestrian,7.5,7.1,38,66.688,504.8,7.3,4.317387,0.525282,1.146667,0.04,0.026667,6.086667,1.826484,0.547945,0
26,21092031,3,pedestrian,7.5,7.1,38,81.548,506.4,7.08,4.451543,0.525282,1.44,0.026667,0.266667,5.346667,2.636535,0.423729,0
26,21092031,3,pedestrian,7.5,7.3,38,383.276,508.6,2.086667,3.958867,0.137681,0,0,2.086667,0,1.757188,0.798722,0
26,21092031,3,car,7.3,7.1,38,460.306,509.6,0.82,20.030522,0.27375,0.046667,0.083333,0.69,0,0,0,0
26,21092031,3,pedestrian,7.6,7.5,38,380.034,511.6,2.19,3.000717,0.109526,0,0,2.19,0,0,0,0
26,21092031,3,bike,7.1,7.6,38,434.836,512.4,1.29,10.325899,0.222007,0.036667,0.533333,0.11,0.61,0,0,3.100775
26,21092031,3,pedestrian,7.3,7.4,38,429.739,513.8,1.4,5.296284,0.12358,0,0,0,1.4,0,0,0
26,21092031,3,pedestrian,7.6,7.5,38,382.409,513.8,2.186667,3.005292,0.109526,0.39,0.01,0.936667,0.85,0,0,0
26,21092031,3,pedestrian,7.6,7.5,38,394.548,515.6,2.016667,3.25863,0.109526,0.633333,0,0.006667,1.376667,0,0,0
26,21092031,3,pedestrian,7.6,7.5,38,431.249,517.2,1.43,4.595504,0.109526,0.203333,0,0.26,0.966667,0,0,0
26,21092031,3,pedestrian,7.1,7.5,38,148.999,518.8,6.163333,3.880695,0.398634,1.333333,0.04,1.83,2.96,0,4.705246,0
26,21092031,3,bike,7.1,7.6,38,454.355,520.6,1.103333,12.072879,0.222007,0,0.473333,0,0.63,0,0,2.114804
26,21092031,3,pedestrian,7.1,7.5,38,136.324,522,6.426667,3.721679,0.398633,0.436667,0.003333,5.986667,0,0.207469,4.149378,0
26,21092031,3,car,7.3,7.1,38,460.88,522.8,1.03,15.946588,0.27375,0,0,1.03,0,0,0,0
26,21092031,3,pedestrian,7.5,7.3,38,421.701,523.2,1.69,4.888069,0.137681,0,0,0,1.69,0,0.986193,0
26,21092031,3,car,7.1,7.3,38,460.865,525.6,1.076667,20.082948,0.360377,0,0,1.076667,0,0,0,2.786378
26,21092031,3,pedestrian,7.3,7.5,38,315.822,527,3.516667,4.888871,0.286542,0,0,0,3.516667,0,0,0
26,21092031,3,pedestrian,7.6,7.4,38,379.994,538.2,2.636667,4.608266,0.202508,0,0,0,2.636667,0,0,0
26,21092031,3,bike,7.6,7.1,38,469.026,544.2,1.25,10.656328,0.222007,0.146667,0.516667,0,0.586667,0,0,14.666667
26,21092031,3,pedestrian,7.5,7.6,38,426.603,545.4,1.976667,3.324572,0.109526,0,0,1.976667,0,0,0,0
26,21092031,3,pedestrian,7.6,7.3,38,419.448,545.6,2.1,5.0576,0.177016,0,0,0,2.1,0,0,0
26,21092031,3,pedestrian,7.5,7.6,38,451.303,546.8,1.59,4.133063,0.109526,0.02,0,0.03,1.54,0,0,0
26,21092031,3,pedestrian,7.3,7.5,38,323.541,547.2,3.726667,4.61338,0.286542,0.013333,0,0,3.713333,0,0,0
26,21092031,3,pedestrian,7.3,7.1,38,167.795,547.8,6.333333,4.601272,0.48569,0,0,0,6.333333,2.789474,0,0
26,21092031,3,car,7.1,7.3,38,483.673,554.2,1.173333,18.428382,0.360377,0,0,1.173333,0,0,0,1.420455
26,21092031,3,bike,7.1,7.6,38,459.083,555.6,1.606667,8.290711,0.222007,0.016667,0.683333,0.906667,0,1.037344,0,6.431535
26,21092031,3,bike,7.1,7.6,38,460.723,556.4,1.593333,8.360089,0.222007,0.216667,0.58,0.306667,0.49,1.046025,0,1.464435
26,21092031,3,bike,7.1,7.6,38,464.098,557.4,1.553333,8.575371,0.222007,0.096667,0.623333,0.833333,0,1.287554,0,1.716738
26,21092031,3,pedestrian,7.5,7.1,38,161.223,559.6,6.636667,4.7489,0.525281,0,0,0,6.636667,2.059267,0.301356,0
26,21092031,3,car,7.1,7.3,38,486.45,561,1.24,17.43761,0.360377,0,0,1.24,0,0,0,2.150538
26,21092031,3,pedestrian,7.5,7.1,38,162.726,561.2,6.64,4.746525,0.525282,0.836667,0.036667,0.046667,5.72,1.957831,0.251004,0
26,21092031,3,pedestrian,7.5,7.1,38,169.068,563.6,6.573333,4.794656,0.525281,0.073333,0.006667,0.01,6.483333,2.332657,0.25355,0
26,21092031,3,pedestrian,7.1,7.6,38,378.364,563.8,3.09,5.613723,0.289107,0.296667,0,0.01,2.783333,0,4.314995,0
26,21092031,3,car,7.1,7.3,38,495.264,567.2,1.196667,18.069059,0.360377,0,0,1.196667,0,0,0,1.671309
26,21092031,3,pedestrian,7.1,7.5,38,231.652,567.2,5.59,4.278717,0.398634,0,0,0,5.59,0,3.279666,0
26,21092031,3,pedestrian,7.4,7.3,38,512.406,568,0.923333,4.773947,0.073466,0,0,0,0.923333,0,0,0
26,21092031,3,pedestrian,7.3,7.4,38,491.514,568.8,1.286667,5.762797,0.12358,0,0,0,1.286667,0,0,0
26,21092031,3,car,7.1,7.3,38,498.146,569,1.18,18.324265,0.360377,0,0,1.18,0,0,0,1.129944
26,21092031,3,pedestrian,7.1,7.5,38,247.43,569.4,5.363333,4.459546,0.398634,0.126667,0.013333,0.026667,5.196667,0,4.785581,0
26,21092031,3,pedestrian,7.1,7.5,38,247.989,572.2,5.403333,4.426533,0.398634,0.093333,0.006667,0,5.303333,0.678593,14.312153,0
26,21092031,3,bike,7.1,7.5,38,432.911,572.4,2.323333,11.038443,0.427433,0.07,0.67,0.046667,1.536667,0,0,9.038737
26,21092031,3,bike,7.1,7.5,38,443.992,573.2,2.153333,11.909899,0.427433,0.293333,0.433333,0.493333,0.933333,0,0,9.752322
26,21092031,3,pedestrian,7.1,7.5,38,271.183,574.2,5.05,4.736243,0.398634,0.17,0.003333,0.02,4.856667,0.594059,2.508251,0
26,21092031,3,pedestrian,7.3,7.5,38,367.558,576,3.473333,4.949865,0.286542,0.036667,0,0.006667,3.43,0.287908,0,0
26,21092031,3,bike,7.6,7.1,38,507.888,576.8,1.146667,11.616637,0.222007,0,0.49,0.003333,0.653333,0,0,2.034884
26,21092031,3,pedestrian,7.3,7.5,38,396.038,577.6,3.023333,5.686614,0.286542,0.04,0.003333,0,2.98,0,0,0
26,21092031,3,pedestrian,7.5,7.4,38,491.851,578.2,1.436667,5.010919,0.119984,0,0,0,1.436667,2.552204,0,0
26,21092031,3,pedestrian,7.3,7.5,38,402.741,579.2,2.94,5.8478,0.286542,0.1,0.01,0.01,2.82,0,0,0
26,21092031,3,pedestrian,7.6,7.5,38,515.141,580.8,1.093333,6.010583,0.109526,0.076667,0.003333,0,1.013333,0,0,0
26,21092031,3,pedestrian,7.5,7.6,38,485.602,584.8,1.65,3.98277,0.109526,0,0,1.65,0,0,0,0
26,21092031,3,pedestrian,7.5,7.6,38,502.231,588.2,1.43,4.595504,0.109526,0,0,0,1.43,0.4662,0,0
26,21092031,3,bike,7.1,7.6,38,516.371,588.4,1.2,11.100342,0.222007,0,0.513333,0.003333,0.683333,0,0,2.222222
26,21092031,3,pedestrian,7.6,7.4,38,460.25,590.8,2.173333,5.590704,0.202508,0,0,0,2.173333,0,12.730061,0
26,21092031,3,car,7.3,7.6,38,444.679,591.6,2.446667,14.608352,0.595696,0,2.446667,0,0,0,0,0
26,21092031,3,pedestrian,7.5,7.3,38,476.766,594.6,1.963333,4.20743,0.137676,0,0,0,1.963333,2.37691,2.546689,0
26,21092031,3,pedestrian,7.6,7.5,38,518.724,594.8,1.266667,5.188082,0.109526,0,0,0,1.266667,0,0,0
26,21092031,3,pedestrian,7.6,7.5,38,519.626,596.2,1.273333,5.160919,0.109526,0.17,0,0.01,1.093333,0,0,0
26,21092031,3,car,7.5,7.1,38,505.218,596.6,1.52,16.502745,0.41807,0,0,1.52,0,0,0.877193,1.315789
26,21092031,3,pedestrian,7.1,7.3,38,327.455,597.2,4.493333,4.785402,0.358373,0.033333,0,0,4.46,1.557864,2.596439,0
26,21092031,3,pedestrian,7.6,7.5,38,529.672,598.6,1.146667,5.731021,0.109526,0,0,0,1.146667,0,0,0
26,21092031,3,pedestrian,7.5,7.4,38,509.478,598.6,1.483333,4.853272,0.119984,0.033333,0,0,1.45,0,2.022472,0
26,21092031,3,car,7.6,7.1,38,534.824,601.4,1.106667,15.965368,0.294472,0,0,1.106667,0,0,0,0
26,21092031,3,pedestrian,7.5,7.1,38,216.519,601.6,6.416667,4.911728,0.525282,0.1,0,0.003333,6.313333,1.714286,0,0
26,21092031,3,car,7.6,7.1,38,541.141,602,1.013333,17.435813,0.294472,0.003333,0.13,0.88,0,0,0,0
26,21092031,3,pedestrian,7.5,7.4,38,521.752,612,1.503333,4.788705,0.119984,0.036667,0,0.15,1.316667,0,1.995565,0
26,21092031,3,car,7.1,7.3,38,544.882,612.8,1.13,19.135074,0.360377,0,0,1.13,0,0,0,0
26,21092031,3,pedestrian,7.1,7.4,38,343.224,613.6,4.503333,5.114395,0.383864,0.446667,0.013333,0.033333,4.01,2.738712,0.666173,0
26,21092031,3,pedestrian,7.1,7.4,38,334.435,615.8,4.686667,4.914347,0.383865,0.283333,0.016667,0.013333,4.373333,2.27596,1.991465,0
26,21092031,3,car,7.1,7.3,38,565.197,618.4,0.886667,24.386437,0.360377,0.006667,0.04,0.01,0.83,0,0,0.75188
26,21092031,3,pedestrian,7.5,7.4,38,549.444,621.2,1.193333,6.032699,0.119984,0,0,0,1.193333,0,2.513966,0
26,21092031,3,bike,7.6,7.1,38,521.604,622,1.67,7.976293,0.222007,0,0.713333,0.956667,0,0,0,1.596806
26,21092031,3,car,7.3,7.1,38,568.409,623.2,0.91,18.04948,0.27375,0,0,0.91,0,0,0,0
26,21092031,3,pedestrian,7.4,7.6,38,443.858,626.4,3.04,4.582439,0.232177,0,0,0,3.04,0,0,0
26,21092031,3,bike,7.6,7.1,38,557.766,627.2,1.156667,11.516205,0.222007,0,0.493333,0.003333,0.66,0,0,2.881844
26,21092031,3,pedestrian,7.5,7.3,38,511.27,635.8,2.073333,3.984326,0.137681,0,0,2.073333,0,0,1.446945,0
26,21092031,3,car,7.1,7.3,38,575.54,640.2,1.076667,20.082948,0.360377,0,0,1.076667,0,0,0,1.547988
26,21092031,3,pedestrian,7.6,7.3,38,535.886,643.6,1.793333,5.922468,0.177016,0,0,0,1.793333,2.60223,0,0
26,21092031,3,pedestrian,7.5,7.4,38,556.479,648.6,1.533333,4.695013,0.119984,0,0,0,1.533333,0,1.73913,0
26,21092031,3,pedestrian,7.6,7.4,38,500.871,650.4,2.49,4.879699,0.202508,0.043333,0,0.003333,2.443333,0,0,0
26,21092031,3,car,7.1,7.6,38,568.291,655.4,1.45,15.574663,0.376388,0,0,1.45,0,0,0,0.229885
26,21092031,3,pedestrian,7.1,7.6,38,429.64,655.6,3.763333,4.609334,0.289108,0,0,0,3.763333,0.531444,7.528787,0
26,21092031,3,pedestrian,7.1,7.5,38,297.206,657,5.993333,3.990758,0.398632,0,0,5.993333,0,0,4.004449,0
26,21092031,3,pedestrian,7.1,7.5,38,315.455,658.6,5.716667,4.183911,0.398634,0.676667,0.036667,1.846667,3.156667,0,3.673469,0
26,21092031,3,pedestrian,7.1,7.5,38,326.831,660.8,5.563333,4.299227,0.398634,0.433333,0.02,0.016667,5.093333,0,13.001797,0
26,21092031,3,pedestrian,7.5,7.6,38,572.632,661,1.47,4.470456,0.109526,0,0,0,1.47,0,0,0
26,21092031,3,pedestrian,7.3,7.5,38,433.376,671.2,3.963333,4.337897,0.286542,0,0,0,3.963333,0,0,0
26,21092031,3,pedestrian,7.4,7.1,38,221.243,675.8,7.573333,4.284908,0.540851,0,0,0,7.573333,1.540493,0,0
26,21092031,3,pedestrian,7.5,7.4,38,616.003,677.8,1.026667,7.012009,0.119983,0,0,0,1.026667,0,0,0
26,21092031,3,pedestrian,7.5,7.1,38,247.958,677.8,7.163333,4.399745,0.525281,0.16,0.023333,0.023333,6.956667,1.814798,0,0
26,21092031,3,pedestrian,7.5,7.1,38,273.264,679.6,6.77,4.65538,0.525282,0.84,0.05,0.02,5.86,2.215657,0,0
26,21092031,3,car,7.3,7.1,38,606.219,683.8,1.29,12.732542,0.27375,0,1.29,0,0,0,0,0.775194
26,21092031,3,car,7.3,7.1,38,621.916,684.2,1.036667,15.844079,0.27375,0.08,0.176667,0.78,0,0,0,0
26,21092031,3,pedestrian,7.1,7.5,38,384.038,687.2,5.05,4.736244,0.398634,0,0,0,5.05,0.264026,3.564356,0
26,21092031,3,bike,7.1,7.6,38,601.945,687.4,1.423333,9.358602,0.222007,0,0.61,0.813333,0,0,0,0
26,21092031,3,car,7.1,7.3,38,608.055,688.4,1.336667,16.176539,0.360377,0,0,1.336667,0,0,0,3.740648
26,21092031,3,pedestrian,7.6,7.5,38,626.971,688.6,1.026667,6.400881,0.109526,0.02,0,0,1.006667,0,0,0
26,21092031,3,car,7.1,7.3,38,621.31,688.8,1.123333,19.248616,0.360377,0.06,0.18,0.883333,0,0,0,3.857567
26,21092031,3,car,7.1,7.6,38,625.594,690.4,1.08,20.910908,0.376396,0,0,1.08,0,0,0,1.234568
26,21092031,3,bike,7.6,7.1,38,620.953,698.4,1.29,10.325899,0.222007,0,0.55,0.003333,0.736667,0,0,4.651163
26,21092031,3,pedestrian,7.6,7.3,38,596.395,698.8,1.706667,6.223219,0.177016,0,0,0,1.706667,0,0,0
26,21092031,3,pedestrian,7.6,7.1,38,307.511,702.6,6.583333,3.8177,0.418887,0,0,6.583333,0,0,12.860759,0
26,21092031,3,pedestrian,7.5,7.6,38,647.354,713.8,1.106667,5.938166,0.109526,0,0,0,1.106667,0,0,0
26,21092031,3,car,7.3,7.1,38,658.73,714.6,0.93,17.661321,0.27375,0,0,0.93,0,0,0,1.075269
26,21092031,3,car,7.1,7.6,38,652.731,717.4,1.076667,20.975648,0.376396,0,0,1.076667,0,0,0,0
26,21092031,3,car,7.1,7.3,38,643.869,718.2,1.236667,17.484615,0.360377,0,0,1.236667,0,0,0,0.808625
26,21092031,3,pedestrian,7.6,7.3,38,598.904,720.8,2.03,5.232,0.177016,0.066667,0,0,1.963333,1.80624,0,0
26,21092031,3,car,7.1,7.3,38,657.234,726.4,1.15,18.802296,0.360377,0,0,1.15,0,0,0,0.869565
26,21092031,3,pedestrian,7.5,7.4,38,639.345,730,1.51,4.767563,0.119984,0,0,0,1.51,0,0,0
26,21092031,3,car,7.1,7.6,38,661.207,737.6,1.27,17.782505,0.376396,0,0,1.27,0,0,0,0
26,21092031,3,pedestrian,7.3,7.5,38,519.851,741.6,3.693333,4.654983,0.28654,0.03,0.003333,0.003333,3.656667,0,0,0
26,21092031,3,pedestrian,7.3,7.5,38,521.394,743.8,3.706667,4.638272,0.286542,0.043333,0.006667,0.003333,3.653333,0,0,0
26,21092031,3,car,7.1,7.3,38,677.475,748,1.173333,18.428387,0.360377,0,0,1.173333,0,0,0,0.284091
26,21092031,3,pedestrian,7.1,7.5,38,485.61,750.2,4.406667,5.427677,0.398633,0,0,0,4.406667,0.605144,2.344932,0
26,21092031,3,car,7.3,7.1,38,679.039,754.8,1.26,13.035737,0.27375,0,1.26,0,0,0,0,0
26,21092031,3,car,7.3,7.1,38,690.901,755.4,1.073333,15.302822,0.27375,0.066667,0.206667,0.8,0,0,0,0
26,21092031,3,pedestrian,7.1,7.3,38,477.053,761.4,4.736667,4.539565,0.358373,0.276667,0.006667,0.003333,4.45,1.40746,0,0
26,21092031,3,pedestrian,7.3,7.5,38,548.214,764.4,3.6,4.775695,0.286542,0,0,0,3.6,0,0,0
26,21092031,3,pedestrian,7.3,7.5,38,554.547,766,3.523333,4.879618,0.286542,0.303333,0.02,0.01,3.19,0,0,0
26,21092031,3,car,7.3,7.6,38,609.795,766.6,2.613333,13.676733,0.595698,0.036667,2.576667,0,0,0,0,0
26,21092031,3,pedestrian,7.3,7.1,38,370.652,768.2,6.623333,4.399804,0.48569,0,0,0,6.623333,0.35229,0,0
26,21092031,3,car,7.3,7.1,38,705.061,772.6,1.123333,14.621687,0.27375,0,1.123333,0,0,0,0,0
26,21092031,3,pedestrian,7.1,7.3,38,486.217,772.8,4.773333,4.504694,0.358373,0.02,0,0,4.753333,1.74581,1.675978,0
26,21092031,3,pedestrian,7.1,7.3,38,487.834,774.4,4.773333,4.504694,0.358373,0.763333,0.016667,0.026667,3.966667,1.675978,0,0
26,21092031,3,pedestrian,7.4,7.5,38,509.547,777.8,4.47,4.586615,0.341703,0.03,0.003333,0.033333,4.403333,0.59657,0,0
26,21092031,3,pedestrian,7.5,7.6,38,699.47,785,1.423333,4.617029,0.109526,0,0,0,1.423333,0,0,0
26,21092031,3,pedestrian,7.6,7.5,38,705.664,785.2,1.323333,4.965923,0.109526,0,0,0,1.323333,0,0,0
26,21092031,3,pedestrian,7.5,7.4,38,644.257,788.2,2.396667,3.003754,0.119983,0,0,2.396667,0,0,0,0
26,21092031,3,bike,7.6,7.1,38,701.1,789.4,1.47,9.061503,0.222007,0,0.63,0.84,0,0,0,0
26,21092031,3,pedestrian,7.4,7.5,38,542.732,789.8,4.116667,4.980288,0.341703,0,0,0,4.116667,0,0,0
26,21092031,3,pedestrian,7.3,7.4,38,678.194,790.2,1.866667,3.972213,0.12358,0.17,0.003333,0.373333,1.32,0,0,0
26,21092031,3,car,7.1,7.3,38,727.399,790.8,1.056667,20.463067,0.360377,0,0,1.056667,0,0,0,0
26,21092031,3,car,7.1,7.3,38,729.035,791.2,1.033333,20.925134,0.360377,0.033333,0.156667,0.843333,0,0,0,0
26,21092031,3,pedestrian,7.6,7.5,38,717.292,791.6,1.236667,5.313939,0.109526,0,0,0,1.236667,0,0,0
26,21092031,3,bike,7.6,7.1,38,721.159,792.2,1.183333,11.256684,0.222007,0,0.506667,0,0.676667,0,0,1.690141
26,21092031,3,pedestrian,7.1,7.4,38,450.454,793,5.706667,4.03596,0.383865,0.033333,0,0,5.673333,1.869159,0,0
26,21092031,3,pedestrian,7.3,7.4,38,709.755,799,1.486667,4.987532,0.12358,0,0,0,1.486667,0,0,0
26,21092031,3,pedestrian,7.6,7.4,38,654.406,802,2.456667,4.945876,0.202506,0,0,0,2.456667,0,0,0
26,21092031,3,pedestrian,7.6,7.4,38,657.197,803.4,2.436667,4.98651,0.202508,0.3,0.013333,0.006667,2.116667,0,0,0
26,21092031,3,pedestrian,7.5,7.4,38,717.118,805.6,1.473333,4.88596,0.119977,0.093333,0.003333,0,1.376667,0,0,0
26,21092031,3,car,7.1,7.3,38,737.437,810.2,1.21,17.869944,0.360377,0,0,1.21,0,0,0,0.826446
26,21092031,3,pedestrian,7.5,7.1,38,339.918,811.4,7.856667,4.011488,0.525282,0,0,0,7.856667,0.339415,0,0
26,21092031,3,pedestrian,7.3,7.1,38,447.219,813,6.093333,4.782503,0.48569,0.873333,0.016667,0.026667,5.176667,0.328228,0,0
26,21092031,3,bike,7.6,7.1,38,728.014,814.6,1.44,9.250285,0.222007,0.033333,0.61,0.796667,0,0,0,2.314815
26,21092031,3,pedestrian,7.5,7.1,38,398.102,814.8,6.943333,4.539163,0.525282,1.333333,0.033333,0.12,5.456667,0.816131,0.240038,0
26,21092031,3,car,7.1,7.3,38,748.364,815.8,1.123333,19.248641,0.360377,0,0,1.123333,0,0,0,1.780415
26,21092031,3,car,7.1,7.3,38,748.976,816.4,1.123333,19.248641,0.360377,0,0.016667,1.106667,0,0,0,1.48368
26,21092031,3,pedestrian,7.5,7.1,38,365.746,816.6,7.513333,4.1948,0.525282,1.443333,0.043333,0.036667,5.99,0.177462,0,0
26,21092031,3,car,7.1,7.3,38,750.497,817,1.106667,19.538531,0.360377,0.003333,0.056667,1.046667,0,0,0,1.204819
26,21092031,3,bike,7.1,7.6,38,693.95,818.2,2.07,6.434981,0.222007,0,0.89,1.18,0,0,0,0
26,21092031,3,pedestrian,7.5,7.3,38,707.018,830.4,2.053333,4.023134,0.137681,0,0,0,2.053333,0,0,0
26,21092031,3,pedestrian,7.5,7.6,38,768.406,831.4,1.046667,6.278571,0.109526,0,0,0,1.046667,0,0,0
26,21092031,3,bike,7.1,7.5,38,675.79,833.4,2.626667,9.763699,0.427433,0.003333,0.68,1.943333,0,0,0,7.233503
26,21092031,3,pedestrian,7.5,7.3,38,731.23,834.2,1.713333,4.8215,0.137681,0,0,0,1.713333,0,0,0
26,21092031,3,pedestrian,7.1,7.3,38,616.063,835.8,3.66,5.874974,0.358373,0.026667,0,0,3.633333,1.183971,0,0
26,21092031,3,bike,7.1,7.6,38,759.948,839.8,1.33,10.015339,0.222007,0,0.57,0.003333,0.756667,0,0,2.005013
26,21092031,3,pedestrian,7.6,7.5,38,769.375,840,1.176667,5.584904,0.109526,0,0,0,1.176667,0,0,0
26,21092031,3,bike,7.1,7.6,38,759.895,840.6,1.343333,9.915938,0.222007,0.086667,0.526667,0.143333,0.586667,0,0,2.233251
26,21092031,3,bike,7.1,7.6,38,768.083,841.2,1.216667,10.948282,0.222007,0.05,0.486667,0.126667,0.553333,0,0,2.739726
26,21092031,3,pedestrian,7.5,7.3,38,740.056,841.6,1.69,4.888069,0.137681,0,0,0,1.69,0,0.591716,0
26,21092031,3,pedestrian,7.6,7.5,38,771.441,844.4,1.213333,5.41613,0.109526,0,0,0,1.213333,0,0,0
26,21092031,3,pedestrian,7.3,7.4,38,768.046,848.4,1.336667,5.547231,0.12358,0,0,0,1.336667,0,3.241895,0
26,21092031,3,pedestrian,7.5,7.1,38,406.911,850,7.383333,4.268657,0.525282,0,0,0,7.383333,1.670429,0.225734,0
26,21092031,3,pedestrian,7.3,7.1,38,485.155,851.8,6.11,4.769458,0.48569,0.606667,0.033333,0.023333,5.446667,1.582106,0,0
26,21092031,3,pedestrian,7.3,7.5,38,660.288,852.2,3.196667,5.378268,0.286542,0.006667,0,0,3.19,0,0,0
26,21092031,3,pedestrian,7.5,7.1,38,454.387,853.8,6.656667,4.734641,0.525282,0.7,0.01,0.046667,5.9,1.502253,0.250376,0
26,21092031,3,car,7.1,7.6,38,777.828,855.4,1.29,17.506807,0.376396,0,0,1.29,0,0,0,0
26,21092031,3,car,7.1,7.3,38,751.701,856,1.736667,12.450645,0.360377,0,1.736667,0,0,0,0,0
26,21092031,3,pedestrian,7.5,7.1,38,456.7,856.2,6.656667,4.734585,0.525276,0.126667,0.01,0.013333,6.506667,2.05308,0.250376,0
26,21092031,3,car,7.1,7.3,38,757.63,856.6,1.646667,13.131158,0.360377,0.19,0.503333,0.953333,0,0,0,0
26,21092031,3,car,7.1,7.3,38,753.807,856.8,1.713333,12.620216,0.360377,0.423333,0.603333,0.686667,0,0,0,0
26,21092031,3,car,7.1,7.3,38,780.417,857.8,1.286667,16.805161,0.360377,0.03,0.036667,1.22,0,0,0,0
26,21092031,3,pedestrian,7.5,7.4,38,755.565,865.4,1.83,3.933891,0.119984,0,0,1.83,0,0,2.003643,0
26,21092031,3,pedestrian,7.5,7.4,38,756.231,867,1.843333,3.90509,0.119973,0.396667,0.003333,0.82,0.623333,0,1.98915,0
26,21092031,3,pedestrian,7.5,7.3,38,775.471,869.2,1.56,5.295408,0.137681,0.123333,0,0,1.436667,0,2.777778,0
26,21092031,3,bike,7.1,7.6,38,806.645,873.6,1.113333,11.96444,0.222007,0,0.476667,0.003333,0.633333,0,0,2.095808
26,21092031,3,car,7.3,7.1,38,834.917,877.8,0.713333,23.025722,0.27375,0,0,0.713333,0,0,0,1.401869
26,21092031,3,pedestrian,7.1,7.5,38,585.254,879.2,4.896667,4.884554,0.398634,0,0,0,4.896667,0,2.3145,0
26,21092031,3,car,7.1,7.3,38,795.915,879.4,1.39,15.555844,0.360377,0,0,1.39,0,0,0,2.158273
26,21092031,3,bike,7.6,7.1,38,766.948,880.6,1.893333,7.035428,0.222007,0,0.81,1.083333,0,0,0,7.922535
26,21092031,3,car,7.1,7.3,38,810.479,888.8,1.303333,16.590244,0.360377,0,0,1.303333,0,0,0,0.767263
26,21092031,3,car,7.1,7.3,38,812.009,889.2,1.283333,16.848811,0.360377,0.206667,0.316667,0.76,0,0,0,0.779221
26,21092031,3,pedestrian,7.3,7.4,38,783.657,895,1.853333,4.00079,0.12358,0,0,1.853333,0,0,0,0
26,21092031,3,bike,7.5,7.1,38,806.93,895.8,1.48,17.328367,0.427433,0,0.376667,0.003333,1.1,0,0,10.585586
26,21092031,3,pedestrian,7.5,7.4,38,799.837,896.4,1.606667,4.480718,0.119984,0.223333,0,0.173333,1.21,0,2.489627,0
26,21092031,3,pedestrian,7.6,7.5,38,805.299,898.6,1.553333,4.230625,0.109526,0,0,0,1.553333,0,0,0
26,21092031,3,pedestrian,7.5,7.3,38,793.779,899,1.753333,4.711503,0.137681,0.066667,0,0.003333,1.683333,0,2.471483,0
26,21092031,3,pedestrian,7.5,7.4,38,798.549,899.8,1.686667,4.268194,0.119984,0.196667,0,0.006667,1.483333,0,1.778656,0
26,21092031,3,pedestrian,7.6,7.5,38,812.434,900.2,1.46,4.501076,0.109526,0.186667,0.003333,0.003333,1.266667,0,0,0
26,21092031,3,bike,7.1,7.6,38,835.23,904.4,1.15,11.582965,0.222007,0,0.493333,0,0.656667,4.057971,0,0.869565
26,21092031,3,car,7.1,7.3,38,828.975,905.8,1.28,16.892684,0.360377,0,0,1.28,0,0,0,2.083333
26,21092031,3,pedestrian,7.5,7.3,38,793.889,907.4,1.89,4.370813,0.137681,0.023333,0.003333,0,1.863333,0,2.469136,0
26,21092031,3,pedestrian,7.5,7.1,38,463.014,912.8,7.493333,4.205937,0.525275,0,0,0,7.493333,1.690391,0.22242,0
26,21092031,3,pedestrian,7.5,7.1,38,479.597,914.8,7.253333,4.345165,0.525282,0.643333,0.04,0.036667,6.533333,1.470588,0.735294,0
26,21092031,3,pedestrian,7.3,7.6,38,748.887,915,2.766667,3.838901,0.177016,0,0,2.766667,0,3.614458,0,0
26,21092031,3,pedestrian,7.5,7.3,38,796.331,918.2,2.03,4.069377,0.137681,0.02,0.003333,0,2.006667,0,1.970443,0
26,21092031,3,bike,7.1,7.6,38,839.356,921.4,1.366667,9.746641,0.222007,0,0.586667,0.78,0,0,0,0
26,21092031,3,car,7.1,7.3,38,851.249,922.6,1.186667,18.221326,0.360377,0,0,1.186667,0,0,0,1.685393
26,21092031,3,car,7.1,7.6,38,821.483,922.6,1.683333,13.416094,0.376396,0,1.683333,0,0,0,0,0.792079
26,21092031,3,car,7.1,7.6,38,839.356,923.2,1.396667,16.169772,0.376396,0.09,0.18,1.126667,0,0,0,0.954654
26,21092031,3,car,7.1,7.3,38,856.46,932,1.256667,17.206345,0.360377,0,0,1.256667,0,0,0,0.795756
26,21092031,3,car,7.3,7.6,38,804.305,934.8,2.173333,16.445626,0.595697,0,0,2.173333,0,0,0,0.920245
26,21092031,3,car,7.3,7.6,38,812.738,935.4,2.043333,17.491939,0.595698,0.093333,0.373333,1.576667,0,0,0,0.978793
26,21092031,3,pedestrian,7.6,7.5,38,830.666,938.6,1.796667,3.657646,0.109526,0,0,1.796667,0,0,0,0
26,21092031,3,pedestrian,7.6,7.5,38,839.219,941,1.693333,3.880849,0.109526,0,0,1.693333,0,0,0,0
26,21092031,3,pedestrian,7.1,7.5,38,600.152,943.4,5.72,4.181469,0.398633,0.043333,0.006667,0.443333,5.226667,0,2.039627,0
26,21092031,3,bike,7.1,7.6,38,846.144,944.6,1.64,8.122201,0.222007,0,0.703333,0.936667,0,4.065041,0,6.707317
26,21092031,3,pedestrian,7.1,7.5,38,653.777,944.8,4.85,4.931553,0.398634,0.606667,0.01,0.02,4.213333,0,3.642612,0
26,21092031,3,bike,7.1,7.6,38,861.373,945.4,1.4,9.514579,0.222007,0.116667,0.533333,0.24,0.51,4.047619,0,0
26,21092031,3,pedestrian,7.5,7.3,38,863.201,946.4,1.383333,5.971688,0.137681,0,0,0,1.383333,0,3.13253,0
26,21092031,3,car,7.1,7.3,38,865.376,947.8,1.373333,15.744641,0.360377,0,0,1.373333,0,0,0,0.485437
26,21092031,3,car,7.1,7.3,38,872.507,948.4,1.263333,17.115539,0.360377,0.043333,0.21,1.01,0,0,0,0.527704
26,21092031,3,pedestrian,7.5,7.1,38,502.128,953.2,7.516667,4.192939,0.525282,0,0,0,7.516667,1.241685,0.399113,0
26,21092031,3,pedestrian,7.6,7.3,38,825.093,953.6,2.14,4.963065,0.177016,0.02,0,0.003333,2.116667,0.934579,0,0
26,21092031,3,pedestrian,7.6,7.3,38,833.081,955.4,2.036667,5.214874,0.177016,0.06,0,0,1.976667,0.981997,0,0
26,21092031,3,pedestrian,7.6,7.1,38,596.764,956,5.986667,4.198169,0.418884,0.02,0,0,5.966667,0,12.082405,0
26,21092031,3,car,7.1,7.6,38,885.312,974,1.476667,15.293757,0.376396,0,0,1.476667,0,0,2.708804,0
26,21092031,3,pedestrian,7.4,7.5,38,747.429,978,3.84,5.339111,0.341703,0.363333,0.003333,0.683333,2.79,2.864583,0,0
26,21092031,3,pedestrian,7.4,7.6,38,808.892,978.4,2.823333,4.934102,0.232177,0,0,0,2.823333,0,0,0
26,21092031,3,pedestrian,7.1,7.6,38,802.905,988.2,3.086667,5.619803,0.289108,0,0,0,3.086667,0,5.183585,0
26,21092031,3,bike,7.5,7.1,38,878.22,1007.8,2.156667,11.89139,0.427429,0,0.556667,0,1.6,0,0,1.854714
26,21092031,3,pedestrian,7.1,7.6,38,821.565,1035.4,3.563333,4.868043,0.289108,0.163333,0.006667,0.006667,3.386667,0,20.112254,0
26,21092031,3,pedestrian,7.6,7.4,38,855.429,1037,3.023333,4.018896,0.202508,0,0,0,3.023333,1.653804,0,0
26,21092031,3,pedestrian,7.4,7.1,38,480.332,1044.4,9.4,3.452237,0.540851,0,0.003333,9.396667,0,1.099291,0,0
26,21092031,3,pedestrian,7.5,7.1,38,532.855,1046.2,8.553333,3.684747,0.525281,1.473333,0.04,2.963333,4.076667,1.208106,0.35074,0
26,21092031,3,pedestrian,7.5,7.1,38,569.08,1048.8,7.993333,3.942889,0.52528,0.666667,0.013333,0.033333,7.28,0.917431,0.29191,0
26,21092031,3,pedestrian,7.3,7.1,38,658.82,1050.4,6.523333,4.467254,0.48569,0.976667,0.016667,0.016667,5.513333,1.073071,0,0
26,21092031,3,pedestrian,7.6,7.1,38,791.943,1052,4.333333,5.799968,0.418887,0.336667,0.003333,0.013333,3.98,0.307692,2.153846,0
26,21092031,3,pedestrian,7.4,7.6,38,848.811,1052.2,3.386667,4.11337,0.232177,0,0,0,3.386667,0,0,0
26,21092031,3,pedestrian,7.5,7.1,38,584.196,1054.2,7.833333,4.023438,0.525282,1.493333,0.026667,0.056667,6.256667,1.06383,0,0
26,21092031,3,pedestrian,7.5,7.1,38,629.866,1056.2,7.103333,4.436911,0.525281,0.923333,0.006667,0.023333,6.15,0.328484,0,0
26,21092031,3,pedestrian,7.3,7.5,38,787.092,1077.2,4.833333,3.557075,0.286542,0,0,4.833333,0,0,0,0
26,21092031,3,pedestrian,7.3,7.5,38,896.184,1078.8,3.043333,5.649243,0.286542,0.003333,0,0.02,3.02,0,0,0
26,21092031,3,pedestrian,7.6,7.1,38,851.268,1088.8,3.956667,6.352113,0.418887,0,0,0,3.956667,0.673968,1.010952,0
26,21092031,3,pedestrian,7.1,7.3,38,846.944,1095.6,4.143333,5.189639,0.358373,0.033333,0.003333,0,4.106667,0,2.413516,0
26,21092031,3,pedestrian,7.1,7.4,38,754.244,1099.6,5.753333,4.003229,0.383865,0,0,0,5.753333,1.042874,1.100811,0
26,21092031,3,pedestrian,7.1,7.4,38,762.525,1101.4,5.646667,4.078817,0.383862,0.803333,0.053333,0.023333,4.766667,0.94451,0.531287,0
26,21092031,3,pedestrian,7.4,7.5,38,892.095,1115.6,3.723333,5.506406,0.341703,0.28,0.013333,0,3.43,0,0,0
26,21092031,3,pedestrian,7.1,7.5,38,880.103,1129,4.146667,5.767999,0.398633,0,0,0,4.146667,0,0.241158,0
26,21092031,3,pedestrian,7.1,7.3,38,881.116,1143,4.363333,4.927977,0.358373,0.013333,0,0,4.35,0,0,0
26,21092031,3,pedestrian,7.5,7.1,38,682.183,1149,7.78,4.051016,0.525282,0,0,0,7.78,1.585261,0,0
26,21092031,3,pedestrian,7.5,7.1,38,769.035,1150.6,6.356667,4.95809,0.525282,0.733333,0.02,0.02,5.583333,1.048768,0.419507,0
26,21092031,3,pedestrian,7.1,7.5,38,898.882,1159.8,4.346667,5.502611,0.398634,0,0,0,4.346667,0,0.306748,0
26,21092031,3,pedestrian,7.5,7.1,38,771.014,1173.6,6.706667,4.699342,0.525282,0.023333,0,0.043333,6.64,1.640159,0.646123,0
26,21092031,3,pedestrian,7.5,7.1,38,779.423,1240.2,7.676667,4.105547,0.525282,0,0,0,7.676667,1.389492,0.564481,0
26,21092031,3,pedestrian,7.5,7.1,38,783.217,1242,7.643333,4.123451,0.525282,1.25,0.066667,0.04,6.286667,1.482774,0.566943,0
26,21092031,3,pedestrian,7.5,7.1,38,785.16,1244.6,7.656667,4.116263,0.525281,0.72,0.036667,0.033333,6.866667,1.436657,0.565956,0
26,21092031,3,pedestrian,7.5,7.1,38,835.241,1246.4,6.85,4.601008,0.525282,0.673333,0.02,0.033333,6.123333,0.875912,0.145985,0
26,21092031,3,pedestrian,7.4,7.1,38,856.912,1248.2,6.52,4.977133,0.540848,0.553333,0.01,0.016667,5.94,0,0,0
26,21092031,3,pedestrian,7.4,7.1,38,861.404,1265,6.723333,4.826629,0.540851,0.12,0,0.003333,6.6,0,0,0
