id,x_gis,y_gis,x_nlogo,y_nlogo
1,163616.69738698954,5398332.226143755,-30.219178690539238,35.77201939026111
2,163617.85938587552,5398331.483354286,-29.948300989740332,35.61915625045518
3,163628.6419683517,5398324.590748466,-27.434734767710196,34.20068518758893
4,163629.7843340241,5398323.821512898,-27.168433835287388,34.04237954514036
5,163646.64233001304,5398308.81299989,-23.238606321096242,30.95368682822911
6,163647.62036338574,5398307.841015506,-23.010613476612406,30.753656279702483
7,163653.35489530792,5398307.384246966,-21.67381630667829,30.65965511774752
8,163652.51364435727,5398308.473176134,-21.869923313368318,30.883752440941862
9,163650.12663007487,5398311.562965818,-22.42636871826103,31.519618958051296
10,163649.37655535238,5398312.719079871,-22.601221309520966,31.757542665309956
11,163639.50675065315,5398333.2554631205,-24.90200665151424,35.98384925147897
12,163639.11232306977,5398334.574038951,-24.99395307091855,36.25520695101878
13,163637.2135691428,5398340.921591536,-25.436578364564895,37.56150821017849
14,163636.83797020224,5398342.246282337,-25.52413557195115,37.834124346583394
15,163595.64687128048,5398404.171234039,-35.126339415671865,50.57803489989456
16,163594.53327850255,5398404.977023241,-35.38593299614038,50.74386313615028
17,163580.76345536133,5398414.940769311,-38.595865533874886,52.79436273610682
18,163579.6279018938,5398415.718675465,-38.86057844894718,52.954452751143805
19,163577.69103741544,5398417.045515895,-39.312087829026574,53.22751127260128
20,163576.55676012608,5398417.825042959,-39.576503249658536,53.38793486454304
21,163569.46452704575,5398422.69914414,-41.22979897439416,54.39100564242
22,163569.70455655074,5398421.341541733,-41.173844841201856,54.11161642742232
23,163571.3903542364,5398411.806694984,-40.78086253578137,52.14938261439025
24,163571.90224312776,5398410.526248564,-40.66153429233393,51.88587179683057
25,163572.81524371868,5398408.242454885,-40.44870147133665,51.415876075020236
26,163573.15347700857,5398406.905620546,-40.369854703921334,51.14076084656594
27,163574.94144599288,5398399.838842502,-39.95305488301321,49.68644582780229
28,163574.9450652466,5398398.457759496,-39.9522111858816,49.402224398280225
29,163569.46452704575,5398422.69914414,-41.22979897439416,54.39100564242
30,163568.64364418958,5398423.805510534,-41.42115790200604,54.61869147790395
31,163510.54312056873,5398502.111477523,-54.96517798979174,70.73375029800047
32,163509.75563621407,5398503.246415462,-55.148751273707916,70.9673160446626
33,163466.4606022144,5398565.65412555,-65.24141092027945,83.81057636768341
34,163465.64823380997,5398566.767800516,-65.43078501370802,84.03976627853675
35,163454.79431957926,5398581.647399449,-67.96097963520944,87.10192898763631
36,163454.0221526623,5398582.791175298,-68.14098221664247,87.33731354135642
37,163425.76219638024,5398622.7599191405,-74.72876132276691,95.56272320994637
38,163425.1941167961,5398624.018076109,-74.86118837883208,95.82164694626357
39,163414.15157349044,5398233.995804671,-77.43535499612796,15.556603463229735
40,163414.38351249052,5398235.357969853,-77.38128686936388,15.836931679239271
41,163419.16095057616,5398245.855902876,-76.26760125402662,17.997364844867093
42,163419.9459238674,5398246.987659737,-76.0846133330509,18.23027593814011
43,163421.89941004972,5398249.804151374,-75.62922920833614,18.80989879636965
44,163422.6775445314,5398250.941332812,-75.44783550662375,19.043926246323522
45,163464.15628875492,5398301.761415017,-65.77857764166018,29.502498504040773
46,163465.29410391976,5398302.539694151,-65.51333749426787,29.662665276845814
47,163474.35315411165,5398308.736185212,-63.40155002440021,30.9378786706923
48,163475.49082836846,5398309.514720019,-63.13634272458057,31.09809806003085
49,163510.60991226314,5398333.547359676,-54.949607939913065,36.04392041008035
50,163511.74787611899,5398334.325382784,-54.68433313063097,36.204034493711845
51,163531.1928861109,5398347.619857232,-50.1514375640397,38.939984842716
52,163532.429671115,5398348.220296171,-49.86312620475872,39.06355280545836
53,163566.94870655387,5398368.436746022,-41.81627085374776,43.22401836142723
54,163568.30887678088,5398368.614538083,-41.49919672550669,43.26060726560482
55,163637.803562444,5398365.825030472,-25.299042923830868,42.68653761351621
56,163638.6868053669,5398366.87887286,-25.09314701886231,42.90341421595437
57,163656.32712571207,5398383.1084559215,-20.980949086375134,46.243398328464934
58,163657.50830652914,5398383.808832293,-20.70559981726747,46.3875330203995
59,163672.63543111333,5397677.341064624,-17.179261903761315,-99.00074412175955
60,163672.84307987738,5397678.705093502,-17.13085616047107,-98.72003236434587
61,163584.47039440475,5398422.699144137,-37.73172776472315,54.391005641845
62,163583.41545266705,5398421.819378591,-37.977648992217624,54.20995336618847
63,163577.69103741544,5398417.045515895,-39.312087829026574,53.22751127260128
64,163576.6347949247,5398416.167283816,-39.55831227969618,53.04677457846495
65,163571.3903542364,5398411.806694984,-40.78086253578137,52.14938261439025
66,163570.33459476833,5398410.927895155,-41.02697438731909,51.968529079338765
67,163896.33194786325,5398423.559479175,34.96743020180858,54.56805919569467
68,163897.7028181236,5398423.4959510965,35.28699865294777,54.554985367953776
69,164105.69051419897,5398261.111206985,83.77175159666379,21.136846195937252
70,164106.4663486197,5398259.9695285065,83.95260912296888,20.901893272894668
71,164133.1530325777,5398222.181810047,90.17363711167556,13.125330016303522
72,164134.00466001814,5398221.101770691,90.37216301887207,12.903062181327101
73,163523.24467446818,5397896.173741785,-52.00427350151503,-53.965843209251936
74,163522.1270980842,5397895.367873361,-52.26479571458688,-54.13168774889563
75,163616.08512979018,5397906.205297065,-30.361904147906273,-51.90138874158517
76,163615.28908154852,5397907.33279573,-30.54747379003807,-51.669353968208895
77,163589.45750759236,5397943.919740771,-36.56916403924125,-44.139905140043865
78,163588.67458737965,5397945.057385432,-36.75167335976618,-43.905782360799805
79,163523.24467446818,5397896.173741785,-52.00427350151503,-53.965843209251936
80,163524.01990190384,5397895.031795587,-51.82355747166112,-54.200851227790906
81,163532.1613656807,5397883.039026576,-49.92567184059201,-56.668915737608934
82,163532.9558058509,5397881.910156625,-49.74047706172385,-56.90123271620449
83,163544.5400930571,5397865.449290961,-47.04002259341252,-60.2888138752065
84,163545.33531096918,5397864.3210895555,-46.85464651236691,-60.52099326982858
85,163518.31322102607,5398602.649175741,-53.153862185394054,91.42401162431275
86,163517.207580174,5398601.829087185,-53.41160206409115,91.2552406375494
87,163478.58329476177,5398574.564879934,-62.415446864413475,85.64437443644536
88,163477.47379328273,5398573.749344694,-62.67408670762246,85.47654050416946
89,163466.4606022144,5398565.65412555,-65.24141092027945,83.81057636768341
90,163465.314160272,5398564.891269362,-65.50866208652863,83.65358357623612
91,163461.09500275808,5398562.105189556,-66.49220492850213,83.08021935296006
92,163459.9480553673,5398561.343242914,-66.75957392162358,82.92341374256858
93,163427.17595391325,5398538.276654556,-74.3991952666794,78.17640093548519
94,163426.40305774842,5398539.420013904,-74.57936784568176,78.41169977466487
95,163531.1928861109,5398347.619857232,-50.1514375640397,38.939984842716
96,163530.47246562314,5398348.792593952,-50.319377350975174,39.181329429251036
97,163524.55824445953,5398358.4200527305,-51.698062520255704,41.162622432381056
98,163523.83595941088,5398359.591746291,-51.86643696162853,41.40375234080682
99,163522.654681167,5398361.5080199065,-52.14180894224227,41.798113884552436
100,163521.86405293999,5398362.640242352,-52.326115105448366,42.03112079336344
101,163519.99414533714,5398365.318050476,-52.76201592969008,42.58220313204893
102,163519.2044912885,5398366.451106618,-52.94609499870454,42.815381612346044
103,163503.7303677321,5398388.654521949,-56.553323079065024,47.38475681855053
104,163502.9406741321,5398389.787549048,-56.73741136802858,47.6179293218523
105,163487.43319427987,5398412.03714159,-60.35241525336914,52.1968076159892
106,163486.64324894827,5398413.169958241,-60.5365622243903,52.429936809888886
107,163471.19168057313,5398435.204736264,-64.13853238607715,56.96460712409254
108,163470.39639176326,5398436.3329889625,-64.32392499435572,57.19679707452724
109,163539.58637571678,5398129.2373848315,-48.194801293931334,-6.002265707631338
110,163539.56751310764,5398130.6196502885,-48.199198423960176,-5.71780093438025
111,163542.77011315338,5398144.922651285,-47.45262891564174,-2.774299803749443
112,163543.8876068588,5398145.72867379,-47.19212597606571,-2.6084235548853485
113,163653.9114927618,5398225.085378197,-21.544065890907333,13.72287287711211
114,163655.03485496104,5398225.884504769,-21.282194925827866,13.887329970322867
115,163653.28810361348,5398313.990310723,-21.689386356563745,32.01915695532281
116,163654.43695090746,5398314.748773696,-21.421574470236678,32.175245640409514
117,163661.78178076097,5398319.597787146,-19.709395011640765,33.173153462504104
118,163661.4779859208,5398320.945789627,-19.78021370933034,33.450567050454254
119,163666.5128591197,5398338.632506432,-18.606516477431683,37.090423534059454
120,163666.99020833182,5398339.927350921,-18.495239901685295,37.356897417202674
121,163684.7692556099,5398287.719712992,-14.350702839551701,26.61277167016216
122,163683.69225418672,5398286.8659628695,-14.601766478928639,26.437073265887804
123,163574.7188070112,5398090.64651921,-40.00495504935008,-13.944113478857489
124,163575.8486036919,5398091.438037106,-39.74158411936642,-13.78122222119292
125,163508.42805024356,5398616.722082499,-55.45822956981225,94.32016026923807
126,163509.2216208797,5398615.592326245,-55.27323749113528,94.08766089290793
127,163508.42805024356,5398616.722082499,-55.45822956981225,94.32016026923807
128,163507.6137193708,5398617.834089039,-55.648061141223444,94.54900682437378
129,163457.8110777797,5398559.923593215,-67.25773238164706,82.63125543976878
130,163456.6848314694,5398559.127784349,-67.52027567213628,82.46748111741212
131,163427.17595391325,5398538.276654556,-74.3991952666794,78.17640093548519
132,163426.08458131796,5398537.439773594,-74.6536090211967,78.00417413780332
133,163408.062397344,5398523.6200619545,-78.85482454486237,75.16013204866152
134,163407.01572221547,5398522.730536818,-79.0988187136391,74.97707128772035
135,163510.54312056873,5398502.111477523,-54.96517798979174,70.73375029800047
136,163511.83085095932,5398502.588626302,-54.664990569940855,70.83194563267205
137,163521.9867642222,5398506.351737352,-52.29750944119861,71.60637902840031
138,163522.67538915103,5398507.54431415,-52.136981630300085,71.85180662454692
139,163810.32650927608,5397874.221111269,14.91839595411291,-58.48360789086993
140,163811.37105761358,5397875.112995494,15.161894339049951,-58.30006163882807
141,163828.282343141,5397889.55261401,19.104144367440483,-55.328445162220824
142,163829.2025063837,5397890.577082517,19.318646899715247,-55.11761358859531
143,163828.282343141,5397889.55261401,19.104144367440483,-55.328445162220824
144,163829.4763531115,5397890.229786223,19.38248428621536,-55.18908579458654
145,163847.97476106245,5397900.720969173,23.694714078061338,-53.03004176719665
146,163849.07711574752,5397901.544764989,23.951687906662016,-52.860507840985136
147,163623.37655643708,5397967.577759457,-28.66217370109115,-39.271178306713985
148,163622.2449237316,5397966.788465872,-28.92597263335294,-39.43361180990944
149,163943.3533007745,5398326.449667064,45.928745327656685,34.58324329521611
150,163944.15648467682,5398325.328191795,46.11597838906866,34.35244811310548
151,164002.65319352038,5398243.705106739,59.752354625828985,17.55473949219531
152,164003.43536035297,5398242.566981411,59.934688323228414,17.320517793438952
153,164029.65930198683,5398206.112343509,66.04784479988444,9.818297252119933
154,164030.4746790949,5398205.001316612,66.23792026293998,9.589652303518733
155,164055.17372927675,5398171.346470756,71.99560385965037,2.6636179105963294
156,164055.9927706893,5398170.238583454,72.1865335217785,2.4356190781611247
157,164062.46515592374,5398161.483617688,73.69533430648588,0.6338816918906502
158,164063.24751215178,5398160.345611171,73.87771215453273,0.39968444409549875
159,164069.26677681122,5398151.590049784,75.2808843874223,-1.4021755185906812
160,164070.0723726829,5398150.47067198,75.46867971160509,-1.632539050857531
161,164093.63461334593,5398117.730776299,80.96135759065615,-8.370280310537396
162,164094.4418802613,5398116.612833908,81.1495424577879,-8.60034844047128
163,163778.2998917747,5398429.428195297,7.4525570296057,55.775817801267834
164,163779.67062542858,5398429.362953604,7.772093635927789,55.76239131853606
165,163719.5232006357,5398423.574842299,-6.249086877684093,54.57122086599452
166,163720.8767395468,5398423.809539652,-5.9335585991258455,54.61952065457345
167,163595.64687128048,5398404.171234039,-35.126339415671865,50.57803489989456
168,163587.48715260532,5398401.4673298625,-37.02848051113363,50.02158209664523
169,163580.4183649399,5398396.689410211,-38.67631079165938,49.03830509759615
170,163574.9637098909,5398391.343059311,-39.947864866414115,47.938047192133126
171,163439.755056373,5398603.924339992,-71.46683586983674,91.68643539230575
172,163438.9335270529,5398605.030189993,-71.65834549695546,91.91401495610361
173,163378.35122525113,5398261.541366979,-85.7809017396859,21.225371424133186
174,163379.1483902193,5398260.414751135,-85.59507177345623,20.993518331865374
175,163382.5145742068,5398255.657394469,-84.81036862958463,20.014473114125295
176,163383.3127781233,5398254.531668146,-84.62429647041313,19.782803081786042
177,163650.46058854726,5398305.018355512,-22.348518468786267,30.172763998129483
178,163651.2277692844,5398303.871828737,-22.169678233497578,29.936813314758098
179,163530.06855925397,5398162.866260006,-50.413533403911664,0.918424021759165
180,163529.6514384229,5398161.554315694,-50.51076992714428,0.6484310623949341
181,163687.875069403,5398250.019231107,-13.626695519457272,18.854161356227124
182,163687.76520630028,5398251.39210677,-13.652306098803393,19.13669374685921
183,163674.59465415127,5398279.654193564,-16.72254044019222,24.952919618108993
184,163673.75775088204,5398280.746834358,-16.91763394337525,25.177780779265376
185,163828.30460703932,5398398.502254033,19.1093343841074,49.411381198441916
186,163827.4720636944,5398399.598644459,18.91525723841852,49.63701401892396
187,163825.14313350068,5398402.665650936,18.372352022403334,50.26819184203703
188,163825.04670964857,5398404.040128099,18.349874314655494,50.55105381513556
189,163826.3008562049,5398447.234087147,18.64223288723838,59.44020003854163
190,163827.17174133845,5398448.297746216,18.845248023896843,59.659096875176175
191,163832.7796505691,5398436.403061707,20.152527727023312,57.211217768573135
192,163831.40895951597,5398436.468856386,19.83300105151642,57.22475805379432
193,163907.92454293175,5398533.746958004,37.66982134551026,77.24420727029323
194,163907.79829333193,5398533.654866907,37.64039085143685,77.22525528604444
195,164113.47174660547,5398213.624738828,85.58566240939834,11.36431854665065
196,164112.37670956255,5398212.792254008,85.33039442243552,11.192996457724647
197,164101.32679015977,5398204.391713947,82.75450833685863,9.464198482123038
198,164100.25486533332,5398203.532003989,82.5046281210316,9.287273567357545
199,164085.05188060587,5398192.8081982555,78.96060617922146,7.08035668959306
200,164083.93263457908,5398192.004237026,78.69969474976565,6.914904642950972
201,164112.39194754467,5398182.5151659725,85.3339466027449,4.962091287160604
202,164111.2745525644,5398181.709026881,85.07346667733816,4.796191045025353
203,164099.18945593658,5398172.990280624,82.25626674023908,3.00190749076215
204,164098.36100807367,5398172.395762538,82.06314430695235,2.879558016093256
205,164097.24136484772,5398171.592274084,81.80214028498648,2.714203264815353
206,164096.1201738318,5398170.790609153,81.5407754521816,2.549223787387646
207,164062.97722558142,5398217.388620167,73.81470468901793,12.138910464714826
208,164062.16915071392,5398218.505891777,73.62633147728485,12.368840550493545
209,164056.99936892575,5398225.653801702,72.421185223435,13.839852190043956
210,164056.17355358138,5398226.755908768,72.22867646592351,14.066661472569564
211,164127.69837752878,5398127.793296997,88.90208303693439,-6.299453281997074
212,164126.8819753524,5398128.90343163,88.71176861655212,-6.070991957962207
213,164120.8744927431,5398137.072333412,87.31134293935816,-4.389864225530715
214,164120.04823289826,5398138.174042781,87.11873056275726,-4.163136787496185
215,164138.941646099,5398149.700440965,91.52304143588469,-1.7910495525450614
216,164137.80659157364,5398148.917223746,91.25844483099667,-1.9522325636697104
217,164120.8744927431,5398137.072333412,87.31134293935816,-4.389864225530715
218,164119.75035575166,5398136.274147226,87.04929135970329,-4.554127791165001
219,164138.941646099,5398149.700440965,91.52304143588469,-1.7910495525450614
220,164138.15864826745,5398150.838087673,91.34051402135566,-1.556926351835159
221,164101.32679015977,5398204.391713947,82.75450833685863,9.464198482123038
222,164100.51844363147,5398205.508750362,82.56607179730858,9.694080165835146
223,164075.87915456435,5398239.557144168,76.82231932699173,16.701105173032133
224,164075.0815482824,5398240.683369424,76.63638648454122,16.932877883960472
225,164079.0072322557,5398241.815479116,77.5515166637395,17.16586158838321
226,164077.89013037813,5398241.00898072,77.291105064547,16.999887403043815
227,164075.87915456435,5398239.557144168,76.82231932699173,16.701105173032133
228,164074.76663000952,5398238.745254,76.5629747638148,16.534021382132096
229,164056.99936892575,5398225.653801702,72.421185223435,13.839852190043956
230,164055.87801781477,5398224.852312407,72.15978307030278,13.674908857865418
231,164062.46515592374,5398161.483617688,73.69533430648588,0.6338816918906502
232,164063.57670943654,5398162.296634289,73.95445250659577,0.8011972984031814
233,164146.82306604716,5398232.198355886,93.36030732344744,15.18669560038299
234,164146.0168552197,5398233.317222955,93.17236864472954,15.416954025313473
235,164119.0265891961,5398270.774448876,86.88057155897448,23.12550322243125
236,164118.23175376005,5398271.903048375,86.69528463828365,23.357764543000954
237,164114.78531659677,5398276.796696943,85.8918733906441,24.364858096137937
238,164113.979904451,5398277.916255822,85.7041208954615,24.595258892963017
239,163884.097935825,5398438.999434027,32.11551606276399,57.745540940478804
240,163882.72511330136,5398438.929981837,31.79549251257197,57.731247954037315
241,163783.79907461992,5398400.407276736,8.7344911376061,49.80342734868623
242,163783.7234924642,5398399.032545333,8.716871911967147,49.520513054022814
243,163813.59930230543,5398124.997297779,15.68132839895489,-6.874858881377548
244,163814.31803177137,5398123.82364817,15.848873985770467,-7.116391336845155
245,163831.04306651276,5398453.026002406,19.747706429770744,60.63215332989128
246,163831.1864044509,5398451.657030647,19.78112044728111,60.35042434709612
247,163832.57927548568,5398438.354181665,20.105817577339806,57.61275055214011
248,163832.63902810123,5398437.772350289,20.119746722463333,57.49301195227045
249,163831.65532371216,5398399.79275324,19.890431887144572,49.676960839710546
250,163833.01516605576,5398399.973406718,20.207429581316845,49.71413861218778
251,163826.3008562049,5398447.234087147,18.64223288723838,59.44020003854163
252,163826.37298772874,5398448.609102838,18.65904772378161,59.7231728385691
253,163828.30460703932,5398398.502254033,19.1093343841074,49.411381198441916
254,163828.1316503148,5398397.135336138,19.06901582577032,49.13007489281017
255,163783.79907461992,5398400.407276736,8.7344911376061,49.80342734868623
256,163784.3477332021,5398401.67162369,8.862390894703836,50.06362495970862
257,163838.10072222902,5398418.919816184,21.392941701959643,53.61323487151205
258,163837.91277780343,5398417.554097968,21.34912930721788,53.33217545517411
259,163831.65532371216,5398399.79275324,19.890431887144572,49.676960839710546
260,163830.37299901785,5398399.29887727,19.591504608416187,49.57532311509601
261,163786.69338138058,5398462.796987025,9.409193299714076,62.6429833843375
262,163786.20438455328,5398461.505437076,9.295201506884283,62.37718750444344
263,163779.90289244216,5398441.242454484,7.826238227087373,58.20714569414619
264,163779.79992531493,5398440.321864665,7.8022351931623035,58.017691944174686
265,163424.8048487593,5398246.39360199,-74.95193203795236,18.10802119956591
266,163425.6099661456,5398245.273789114,-74.76424825519828,17.877568131199865
267,163492.9546410233,5398151.605412453,-59.065291128728944,-1.399013941822119
268,163493.7897040133,5398150.511222237,-58.8706266195955,-1.6241939680607942
269,163500.22380377207,5398142.0805589175,-57.370750698540036,-3.359191191220944
270,163501.0195747097,5398140.952776011,-57.18524569973932,-3.591284460378162
271,163546.49931609505,5398076.497599638,-46.58330112983664,-16.855905260666376
272,163547.2952321688,5398075.369954185,-46.39776229783858,-17.08797024254561
273,163623.37655643708,5397967.577759457,-28.66217370109115,-39.271178306713985
274,163624.1761214425,5397966.45325594,-28.475784253632867,-39.50259669039604
275,163719.99074249694,5397831.698599291,-6.1400965284451985,-67.2345729583723
276,163720.76195546755,5397830.554410688,-5.960316324844939,-67.47004245519126
277,163744.74819724954,5397794.96778613,-0.3687980341336896,-74.79362927765865
278,163745.54274630244,5397793.8390293075,-0.18357787323870411,-75.02592297481763
279,163652.00792946937,5398392.188028358,-21.987812312873558,48.11193848574575
280,163650.7826358161,5398391.566926003,-22.273444882409336,47.9841180735761
281,163638.46034743974,5398385.320736707,-25.14593743318426,46.698676979100895
282,163637.23543592196,5398384.698949611,-25.431480921757412,46.57071564975507
283,163472.75015344424,5398146.673995124,-63.775231221868296,-2.4138801567827386
284,163472.99208201727,5398145.316657962,-63.71883439015832,-2.69321478533962
285,163402.61887424416,5398079.616197857,-80.12378361128704,-16.21411006078688
286,163401.50318908165,5398078.808058222,-80.38386495498249,-16.380422006831964
287,163396.12894793093,5398074.9152571,-81.6366734593749,-17.181545107215683
288,163395.35529460135,5398074.3548616525,-81.81702254375207,-17.29687227763209
289,163452.0669920548,5398310.764092949,-68.59675667257663,31.355214076007854
290,163452.81206222807,5398309.605177567,-68.42307070961884,31.116713866322925
291,163454.08187483813,5398307.630053904,-68.12706016743181,30.71024121504209
292,163452.9721463498,5398306.814846703,-68.38575292957977,30.542474791859945
293,163404.09942347172,5398270.912714728,-79.77864750528693,23.153957788815035
294,163402.97330498399,5398270.116820438,-80.04116099860182,22.99016588640646
295,163638.504875236,5398406.982680697,-25.135557399938577,51.15661952135676
296,163637.15489892784,5398406.717484531,-25.45025518743057,51.10204319750437
297,163632.32664349696,5398405.768995971,-26.57578701519148,50.9068479969925
298,163630.97992989622,5398405.475843968,-26.88972422133314,50.846518472154656
299,163588.06601395732,5398420.809479967,-36.89354007874325,54.00212021681273
300,163586.85093087508,5398421.448062459,-37.176792425684646,54.13353797231372
301,163567.87265832743,5398404.570674496,-41.60088516354574,50.66023816880249
302,163566.731380235,5398403.798584218,-41.866932566327954,50.501345038216016
303,164103.54204802655,5398282.834311819,83.27091499169376,25.607375398361356
304,164102.71518905295,5398283.935537432,83.0781629500558,25.83400328152237
305,163875.65991842284,5398432.055291942,30.148499759403165,56.31646391799009
306,163874.32321753824,5398431.730063365,29.836896653199204,56.24953316088971
307,163833.31398412495,5398423.175401025,20.277088126188403,54.48901742899858
308,163834.6803693059,5398423.055589798,20.59561104448548,54.464360751437
309,163864.29419841288,5398429.289927076,27.498996269012025,55.7473627472946
310,163862.92686852813,5398429.397894517,27.18025312744186,55.769582020343535
311,163778.17744033484,5398424.911434392,7.424011938137738,54.846286241305364
312,163779.54972537517,5398424.865673324,7.743910193679554,54.83686879412335
313,163757.36069555642,5398435.373730872,2.571346387631351,56.999385547031466
314,163755.98432609104,5398435.3682413995,2.250495997212994,56.99825583530702
315,163648.1896709351,5398400.146104246,-22.87790016519712,49.74967908161929
316,163646.9160534924,5398399.625228704,-23.174797665478124,49.64248495163318
317,163629.07611436577,5398395.122376006,-27.33352944340045,48.715815645649656
318,163627.70193909577,5398395.144332877,-27.653868337116563,48.72033428306037
319,163577.13443996152,5398355.3013605615,-39.44183824480431,40.520807897971025
320,163575.89947076913,5398354.697656805,-39.729726313742496,40.39656804850509
321,163571.98034753764,5398352.781826766,-40.64332709504056,40.0022977911207
322,163570.75330592442,5398352.163877118,-40.92936713775168,39.875126193533475
323,163517.8345472157,5398323.469252306,-53.26544754296304,33.96988570610492
324,163516.7173112492,5398322.662885253,-53.52589040010007,33.80393855054581
325,163482.5017408377,5398297.659515177,-61.502003937261726,28.658343713079432
326,163481.38018495563,5398296.858241864,-61.763453825311856,28.493444828969928
327,163504.1756456953,5398159.609369537,-56.44952274642521,0.24816882282208041
328,163504.92613325178,5398158.453514851,-56.27457391796206,0.010298492230404577
329,163635.72188796612,5397974.705901618,-25.78430947888829,-37.804234794948
330,163636.516958696,5397973.5775544,-25.598967708010562,-38.03644419721073
331,163731.11155962726,5397840.070971499,-3.5476832209764098,-65.51157181572621
332,163731.9150716727,5397838.949868662,-3.360373664950828,-65.74229035295798
333,163756.94881344048,5397803.770263833,2.4753310799478214,-72.98211412233164
334,163757.73989653905,5397802.638542257,2.659743279878697,-73.21501795408719
335,163574.9637098909,5398391.343059311,-39.947864866414115,47.938047192133126
336,163572.80411176963,5398384.1992331855,-40.45129647964637,46.46787598252476
337,163571.90242389406,5398377.301221369,-40.661492153256084,45.048292387028056
338,163572.00261143583,5398369.097356548,-40.63813707840076,43.35996939927119
339,163572.00261143583,5398369.097356548,-40.63813707840076,43.35996939927119
340,163574.83012650197,5398359.787361451,-39.97900496619861,41.44400916841789
341,163574.83012650197,5398359.787361451,-39.97900496619861,41.44400916841789
342,163577.13443996152,5398355.3013605615,-39.44183824480431,40.520807897971025
343,163577.13443996152,5398355.3013605615,-39.44183824480431,40.520807897971025
344,163582.9341854318,5398347.527679231,-38.089838912299,38.921014974055225
345,163588.45563217514,5398342.3964386135,-36.80271478767917,37.865025915363276
346,163596.2034687344,5398337.295926805,-34.99658899989413,36.815360724151276
347,163606.0552436696,5398333.240100143,-32.70000664043903,35.98068761127013
348,163616.69738698954,5398332.226143755,-30.219178690539238,35.77201939026111
349,163616.69738698954,5398332.226143755,-30.219178690539238,35.77201939026111
350,163625.0018210028,5398335.821080541,-28.283302486956117,36.511843186479496
351,163631.13552494548,5398341.612926075,-26.853452904976024,37.703782128632156
352,163635.20981830853,5398347.9885692485,-25.903679861400008,39.015864319850664
353,163635.20981830853,5398347.9885692485,-25.903679861400008,39.015864319850664
354,163637.7590346477,5398358.281785566,-25.309422957090106,41.1341675959448
355,163637.803562444,5398365.825030472,-25.299042923830868,42.68653761351621
356,163637.803562444,5398365.825030472,-25.299042923830868,42.68653761351621
357,163635.10963076682,5398376.932508186,-25.927034936241768,44.97241266993191
358,163635.10963076682,5398376.932508186,-25.927034936241768,44.97241266993191
359,163632.6494700203,5398382.37102911,-26.500531774026413,46.091638802274645
360,163621.383937552,5398395.24528064,-29.12668018958938,48.741108934066744
361,163613.6917607381,5398399.854205588,-30.919830935805464,49.689607490243986
362,163604.8975209653,5398403.694978133,-32.969887505287645,50.48002331494496
363,163595.64687128048,5398404.171234039,-35.126339415671865,50.57803489989456
364,163779.64685761335,5398438.9533445705,7.76655303582811,57.73605591232959
365,163778.32589182188,5398439.323758649,7.458617993250741,57.81228566707341
366,163661.78178076097,5398319.597787146,-19.709395011640765,33.173153462504104
367,163662.58838088994,5398318.479230547,-19.5213655814609,32.94295893095415
368,163684.7692556099,5398287.719712992,-14.350702839551701,26.61277167016216
369,163685.622043315,5398286.640651515,-14.151906458920251,26.39070507871149
370,163696.71383697202,5398255.473040301,-11.566258916729439,19.976533754378906
371,163695.5444566757,5398254.751495006,-11.838857324394027,19.828042581482336
372,163973.52088277956,5398482.554072357,52.961217863409416,66.708913535975
373,163972.74814815915,5398483.697522829,52.78108294260238,66.94423112837282
374,163953.81733290918,5398468.22019521,48.36805314450598,63.75905821551376
375,163953.04288228267,5398469.362681349,48.18751819939996,63.99417735192537
376,164116.55529650048,5398278.05645341,86.30447971287333,24.624111002847158
377,164115.9084644683,5398277.596080536,86.15369439302768,24.52936808321782
378,164114.78531659677,5398276.796696943,85.8918733906441,24.364858096137937
379,164113.66988720404,5398275.988220803,85.63185167035533,24.198476898786907
380,163926.0431199561,5398464.93247089,41.893507396625324,63.082457531865685
381,163925.2277147091,5398466.043525239,41.703425374005406,63.31110813010267
382,164034.41264424377,5398341.274940293,67.1559133507333,37.634225989222244
383,164033.31398803744,5398340.446689126,66.8998016876912,37.46377516931088
384,164021.19902068653,5398331.350454242,64.07563847989738,35.59180594608131
385,164020.9845271699,5398331.201222014,64.0256371319426,35.56109454273414
386,164019.85205484793,5398330.413312918,63.76164247368854,35.39894596176569
387,164018.7225232351,5398329.62143592,63.498333334622856,35.2359808022961
388,164019.85205484793,5398330.413312918,63.76164247368854,35.39894596176569
389,164018.84802270628,5398331.358196094,63.52758896353481,35.59339918859956
390,163396.73007318127,5398235.608900037,-81.4965430103108,15.888572120235096
391,163398.1067639074,5398235.61886504,-81.17561772965645,15.890622878602613
392,163410.26652326167,5398234.256972475,-78.34101289835054,15.610350766042586
393,163411.63509426752,5398234.16497213,-78.02198043462023,15.591417458346982
394,163414.95307382406,5398253.752401557,-77.24851439741427,19.62243309458968
395,163416.32897399802,5398253.75240172,-76.92777340518825,19.62243312813061
396,163421.89941004972,5398249.804151374,-75.62922920833614,18.80989879636965
397,163422.79064798928,5398248.757971906,-75.4214695565436,18.594599192668838
398,163644.36028045174,5398334.745671953,-23.770583025837183,36.29052834521974
399,163643.0485833277,5398334.342933865,-24.07635741632282,36.207646436934766
400,163639.50675065315,5398333.2554631205,-24.90200665151424,35.98384925147897
401,163638.25134143975,5398332.688500008,-25.194659566581976,35.86717048146028
402,163628.6419683517,5398324.590748466,-27.434734767710196,34.20068518758893
403,163628.05320959224,5398323.346983044,-27.57198242002154,33.94472317483442
404,163530.06855925397,5398162.866260006,-50.413533403911664,0.918424021759165
405,163530.36250330615,5398161.515081858,-50.34501105851085,0.6403568939791029
406,163540.67730672655,5398146.704720457,-47.94049047898853,-2.407557004587275
407,163541.7237057239,5398145.813689565,-47.696560680134425,-2.5909276439390254
408,163719.99074249694,5397831.698599291,-6.1400965284451985,-67.2345729583723
409,163721.08905774553,5397832.527138915,-5.88406434727851,-67.06406277521549
410,163726.7923633844,5397836.829556775,-4.554546447515534,-66.17864216738293
411,163727.8929037587,5397837.655476425,-4.297995559360729,-66.00867116459537
412,163731.11155962726,5397840.070971499,-3.5476832209764098,-65.51157181572621
413,163732.24970743366,5397840.848521893,-3.282365530324597,-65.35155501480921
414,163735.60886705533,5397843.143403568,-2.4992998614003596,-64.87927742721183
415,163736.74796644028,5397843.919244891,-2.2337603448821426,-64.71961234635599
416,163742.51067548446,5397847.844226605,-0.8903947056357424,-63.911866607115776
417,163743.6580595182,5397848.605180593,-0.6229239251171066,-63.75526528097571
418,163772.73391723502,5397814.815618553,6.155052871719846,-70.70902373281345
419,163771.6555014915,5397813.963642657,5.9036595350878684,-70.88435700831756
420,163768.20321395967,5397811.236246247,5.09888448718749,-71.44564442053098
421,163767.05597336724,5397810.47504508,4.831447144784562,-71.6022966150508
422,163761.53517646118,5397806.811959645,3.544474506049113,-72.35614513421393
423,163760.38779564347,5397806.051012022,3.2770044752310525,-72.51274515034075
424,163756.94881344048,5397803.770263833,2.4753310799478214,-72.98211412233164
425,163755.85186474602,5397802.940121367,2.219617461081242,-73.15295416414057
426,163752.80772838293,5397800.636396466,1.5099879864727512,-73.62705165261389
427,163751.67962466078,5397799.842953859,1.247011708090156,-73.79033900826019
428,163658.60917527328,5398377.931106424,-20.448972381654556,45.17792024431054
429,163658.05194901512,5398379.195301514,-20.5788693802281,45.438086602269294
430,163656.32712571207,5398383.1084559215,-20.980949086375134,46.243398328464934
431,163655.73503582703,5398384.353114794,-21.118973269237344,46.4995442099638
432,163652.00792946937,5398392.188028358,-21.987812312873558,48.11193848574575
433,163651.41182514897,5398393.430439156,-22.126772315069218,48.36762172231494
434,163648.1896709351,5398400.146104246,-22.87790016519712,49.74967908161929
435,163647.62672547597,5398401.4070982495,-23.00913038708768,50.00918666851163
436,163485.2624642095,5398293.895601193,-60.858441874924665,27.883745076861004
437,163484.4473662418,5398295.006889403,-61.04845226656768,28.11244380251216
438,163482.5017408377,5398297.659515177,-61.502003937261726,28.658343713079432
439,163481.6867160436,5398298.770866709,-61.69199727115121,28.887055470247873
440,163520.73998592544,5398319.182987404,-52.588150372538564,33.087789313329154
441,163519.9655647629,5398320.3254569005,-52.768678449188826,33.32290502473177
442,163517.8345472157,5398323.469252306,-53.26544754296304,33.96988570610492
443,163517.03189063794,5398324.591183255,-53.45255767786723,34.200774665614404
444,163515.229671131,5398327.110274587,-53.872679488882596,34.71919371514019
445,163514.4237134121,5398328.229383817,-54.0605591645615,34.949501975964495
446,163510.60991226314,5398333.547359676,-54.949607939913065,36.04392041008035
447,163509.8072355984,5398334.669275499,-55.13672275736897,36.27480625660738
448,163637.4696039716,5397991.128301758,-25.376893173305646,-34.42456968892543
449,163638.5796627431,5397991.94304557,-25.118123417666354,-34.25689862953273
450,163640.96503598258,5397993.693824336,-24.56206056214036,-33.89659527225979
451,163642.0873013143,5397994.494190286,-24.300445291750023,-33.731883119949174
452,163760.58896078938,5398024.818124963,3.323898799193728,-27.491337095591575
453,163761.95243824838,5398024.967144073,3.641743888069172,-27.4606695511429
454,163647.5996776338,5397998.425448683,-23.015435605951495,-32.92284566414084
455,163648.72538676875,5397999.221759068,-22.753017538325707,-32.758968131139994
456,163786.69338138058,5398462.796987025,9.409193299714076,62.6429833843375
457,163785.3262428733,5398462.678785407,9.090494770829238,62.618657958047805
458,163767.85812353835,5398461.168488872,5.018439229430129,62.30784489450937
459,163766.49101312578,5398461.050048308,4.699747249804048,62.28347029413652
460,163701.02190126575,5398449.16984622,-10.56199069852039,59.83857161256543
461,163699.83183821433,5398448.485412142,-10.839410536924348,59.697717781819875
462,163645.3955517161,5398001.6669200035,-23.529247252476907,-32.25576366515347
463,163646.1717085028,5398000.525474539,-23.34831457828774,-32.4906686348114
464,163647.5996776338,5397998.425448683,-23.015435605951495,-32.92284566414084
465,163648.37317994953,5397997.282516192,-22.835121724955243,-33.15805665806796
466,163662.85044787262,5398211.950196193,-19.46027421331739,11.019704284055905
467,163662.0771289437,5398213.093267913,-19.640545344366416,11.254943930761414
468,163495.7821560894,5398153.617923083,-58.40615901653357,-0.984847200571366
469,163494.65903253425,5398152.8185294075,-58.667974350442236,-1.1493592625895843
470,163492.9546410233,5398151.605412453,-59.065291128728944,-1.399013941822119
471,163491.83224018305,5398150.805167921,-59.326937987991236,-1.5637011068998419
472,163414.95307382406,5398253.752401557,-77.24851439741427,19.62243309458968
473,163415.07436634545,5398252.380868425,-77.2202394655575,19.340176991405272
474,163419.16095057616,5398245.855902876,-76.26760125402662,17.997364844867093
475,163420.02884843232,5398244.789768126,-76.0652824922412,17.77795852290238
476,163373.0078896931,5398429.65864234,-87.02650573124167,55.823242892948144
477,163373.8174290165,5398428.5425741095,-86.83779113497943,55.59356045774669
478,163405.0233752454,5398385.520456526,-79.56326181505777,46.73977852931921
479,163405.83274517293,5398384.404252387,-79.37458670726512,46.5100681246162
480,163420.6860276,5398363.920014882,-75.91208511477406,42.294492926998515
481,163421.49537658558,5398362.803797204,-75.72341488883453,42.06477973609765
482,163437.29489562643,5398341.013769468,-72.04033270762818,37.580478064656205
483,163438.10469293816,5398339.897939745,-71.8515579707838,37.35084471345655
484,163451.48813070267,5398321.456704738,-68.73169710500093,33.555711362944095
485,163452.23364051792,5398320.298033943,-68.55790865553064,33.31726148843384
486,163453.8703678056,5398317.754232879,-68.17636532543861,32.793757273379725
487,163454.61541545085,5398316.595303669,-68.0026846140619,32.55525421788988
488,163456.49750778833,5398313.667688891,-67.56394336291316,31.952762656217374
489,163457.2439305519,5398312.509530971,-67.38994209280976,31.714418329100624
490,163458.46786277535,5398310.61046356,-67.10462689102758,31.323597754226057
491,163459.21287035925,5398309.451513036,-66.93095551849828,31.085090312539734
492,163452.0669920548,5398310.764092949,-68.59675667257663,31.355214076007854
493,163453.2180999943,5398311.518486755,-68.3284177991213,31.51046534255383
494,163456.49750778833,5398313.667688891,-67.56394336291316,31.952762656217374
495,163457.63185662625,5398314.452200514,-67.29951126334011,32.11421205062953
496,163517.22229001627,5398357.55972375,-53.40817300034364,40.985570125104346
497,163518.33656513024,5398358.369586325,-53.148420358088245,41.15223664544865
498,163522.654681167,5398361.5080199065,-52.14180894224227,41.798113884552436
499,163523.79364685208,5398362.284251529,-51.87630059298018,41.95785928752406
500,163666.1789006473,5397831.57570214,-18.68436672691324,-67.25986470678114
501,163665.4135177566,5397832.723157017,-18.862787859814176,-67.02372302386179
502,163454.86111127367,5398458.3723889375,-67.94540958533076,61.73241856817023
503,163454.05718098156,5398459.493257834,-68.13281664032687,61.96308896131313
504,163439.64373688216,5398479.588970545,-71.4927859530018,66.09870729057934
505,163438.84003620868,5398480.710040069,-71.68013948078121,66.32941897223483
506,163420.93093047987,5398505.691117034,-75.85499493179739,71.4704259754167
507,163420.12664004235,5398506.811687599,-76.04248594157288,71.70103497311658
508,163449.62909520633,5398578.159910854,-69.16506349375541,86.38421760495177
509,163450.77100581134,5398578.930913575,-68.89886864371027,86.54288692068553
510,163454.79431957926,5398581.647399449,-67.96097963520944,87.10192898763631
511,163455.937466036,5398582.416182519,-67.69449669136458,87.26014150798017
512,163672.63543111333,5397677.341064624,-17.179261903761315,-99.00074412175955
513,163673.9933389445,5397677.116228361,-16.862715170674974,-99.047014536907
514,163520.39489550394,5397899.630248886,-52.668595630336625,-53.25450769572752
515,163519.59617976996,5397900.755466875,-52.85478710110663,-53.02294227642704
516,163481.39967787894,5397954.565841694,-61.75890976050068,-41.94897960547534
517,163480.6007839751,5397955.690918526,-61.94514276508315,-41.717443235886286
518,163399.91381061787,5398069.031403238,-80.75437063202122,-18.39241899999496
519,163399.16845394115,5398070.190116715,-80.92812338282194,-18.15396034159194
520,164123.29012569334,5398227.174718812,87.87445974388359,14.152850926064659
521,164124.10201194527,5398226.060704483,88.06372144102318,13.923591175693147
522,164136.9267633157,5398224.977838621,91.05334493074665,13.700741656886265
523,164136.13129625592,5398226.105889015,90.86791076999151,13.932889974007551
524,164115.23059455992,5398255.242597595,85.99567372327036,19.929109555270912
525,164114.45092716164,5398256.3821277395,85.81392267790932,20.163620359671853
526,164101.22660261806,5398257.885007643,82.7311532620169,20.472907109815026
527,164102.03919286074,5398256.771588951,82.92057906894883,20.24376993930916
528,164002.65319352038,5398243.705106739,59.752354625828985,17.55473949219531
529,164003.77038821686,5398244.511497474,60.0127878623652,17.72069152154036
530,164081.3894693587,5398243.536115636,78.10684844331541,17.51996179048237
531,164082.20643784569,5398242.426442435,78.2972948783792,17.29159542717065
532,164096.5289201066,5398227.697054037,81.63605975276411,14.260345452917079
533,164097.89774090817,5398227.608157196,81.95515044726761,14.242050834081894
534,164102.27300583155,5398229.24869709,82.97508404370726,14.579667466672191
535,164103.4028148676,5398230.040222889,83.23845785388656,14.7425603507848
536,164127.8542248159,5398209.538240825,88.93841315335865,10.523333392824654
537,164128.79216747923,5398208.531993035,89.15706030972777,10.316251570832364
538,164090.6623829418,5398260.727135577,80.26849037035979,21.057805816686056
539,164091.4310581128,5398259.581445937,80.44767897844761,20.82202741241879
540,164095.39346130047,5398253.675587339,81.37136890454849,19.60662503192583
541,164096.2080039989,5398252.56383853,81.56124985539915,19.377831516706095
542,164109.55330052943,5398234.349149351,84.67221948221945,15.629320403175043
543,164110.3682739104,5398233.237772621,84.86220083100892,15.400603460385767
544,164123.63521611487,5398215.14565396,87.95490500168845,11.677316875580175
545,164124.4631045239,5398214.045321906,88.14789701868736,11.450872883396343
546,164146.26646859324,5398224.163610433,93.2305569076697,13.533176710866442
547,164145.47738375346,5398225.2971165525,93.04661052896418,13.766447794629528
548,164142.72650878594,5398229.248697088,92.40534426323842,14.579667466288853
549,164141.91930195212,5398230.366712167,92.21717340192853,14.809750555098205
550,164114.9077680367,5398267.778689181,85.92041848213242,22.508987705805666
551,164114.10004788288,5398268.896273232,85.7321279589676,22.738982090714458
552,164110.5885717938,5398273.754846664,84.91355525558652,23.738857319259893
553,164109.74500422357,5398274.8417865615,84.71690821344924,23.962545258427397
554,164117.1341578525,5398210.797988134,86.43942014527047,10.782584415108104
555,164118.27900616959,5398211.563620557,86.70629981584321,10.940148544635349
556,164123.63521611487,5398215.14565396,87.95490500168845,11.677316875580175
557,164124.74063562264,5398215.965908188,88.21259328202865,11.846121956995532
558,164129.10100311288,5398219.201428864,89.22905408474611,12.511979336817419
559,164130.21017883686,5398220.017258952,89.48761799002983,12.679873947718548
560,164133.1530325777,5398222.181810047,90.17363711167556,13.125330016303522
561,164134.25909265492,5398223.001311149,90.43147471743796,13.293980107531311
562,164136.9267633157,5398224.977838621,91.05334493074665,13.700741656886265
563,164138.03544179074,5398225.794255714,91.31179292055464,13.86875707113326
564,164142.72650878594,5398229.248697088,92.40534426323842,14.579667466288853
565,164143.84474004048,5398230.053861415,92.66601913551924,14.74536710562613
566,164146.82306604716,5398232.198355886,93.36030732344744,15.18669560038299
567,164147.89458897378,5398232.964014049,93.6100938509731,15.344265027078634
568,164120.74090935424,5398272.003478778,87.28020283958728,23.378432723375525
569,164120.14666326987,5398271.577452105,87.14167601741514,23.290758116200536
570,164119.0265891961,5398270.774448876,86.88057155897448,23.12550322243125
571,164117.91263721036,5398269.964233719,86.62089424229595,22.958764142111107
572,164114.9077680367,5398267.778689181,85.92041848213242,22.508987705805666
573,164113.79152529492,5398266.971173267,85.66020715914547,22.342804119017543
574,164109.38632129328,5398263.78434443,84.63329435749225,21.686967327400964
575,164108.27000020174,5398262.976921651,84.37306477011526,21.52080290743868
576,164105.69051419897,5398261.111206985,83.77175159666379,21.136846195937252
577,164104.5738644758,5398260.304171904,83.51144540079537,20.970761562777355
578,164101.22660261806,5398257.885007643,82.7311532620169,20.472907109815026
579,164100.10931214396,5398257.07872807,82.47069769841815,20.306977957115308
580,164095.39346130047,5398253.675587339,81.37136890454849,19.60662503192583
581,164094.2774841042,5398252.867761549,81.11121948382666,19.440377673846186
582,163513.5042190238,5398314.220754892,-54.274905777805095,32.06658145534092
583,163514.641220308,5398315.000502051,-54.00985535702984,32.227050341925036
584,163485.2624642095,5398293.895601193,-60.858441874924665,27.883745076861004
585,163486.37610534817,5398294.706196408,-60.59883702090749,28.050562371392658
586,163492.1642726386,5398298.919274485,-59.24953671916684,28.917597204550958
587,163493.28428617932,5398299.722364805,-58.98844637180278,29.08287002144806
588,163508.06069592404,5398321.902230498,-55.5438648442094,33.64739880537809
589,163509.1751636326,5398322.711858198,-55.284067305540994,33.81401698920439
590,163486.56490225173,5398306.308841685,-60.554825901988636,30.438340957081323
591,163485.43815897996,5398305.513676591,-60.81748504093633,30.274699120475418
592,163747.45326087583,5397808.0409279335,0.261788986600493,-72.10322831289457
593,163748.26121673975,5397806.923630755,0.450134456984145,-72.3331636605758
594,163761.53517646118,5397806.811959645,3.544474506049113,-72.35614513421393
595,163760.72198252482,5397807.924778374,3.3549079699316593,-72.1271314336544
596,163732.55871300751,5397829.087035198,-3.2103321399393963,-67.77202253716784
597,163733.35593483978,5397827.960556679,-3.024488917920806,-68.00384736841544
598,163756.21410480124,5397814.093599136,2.3040605311060176,-70.85761247802655
599,163755.41909673114,5397815.221967309,2.118733367075265,-70.62539876335737
600,163741.36408472937,5397835.170444463,-1.1576805621407118,-66.52008093026953
601,163740.55701942474,5397836.288508588,-1.3458184310763954,-66.28998774793749
602,163726.7923633844,5397836.829556775,-4.554546447515534,-66.17864216738293
603,163727.61508728433,5397835.72487976,-4.3627583476321234,-66.4059803353178
604,163767.85812353835,5398461.168488872,5.018439229430129,62.30784489450937
605,163767.7834881793,5398462.545535349,5.001040714937474,62.591235622303344
606,163486.56490225173,5398306.308841685,-60.554825901988636,30.438340957081323
607,163487.67998471844,5398307.117742001,-60.29488505485866,30.60480944827185
608,163539.58637571678,5398129.2373848315,-48.194801293931334,-6.002265707631338
609,163540.38435048694,5398128.111489205,-48.00878255187768,-6.233970582106366
610,163637.4696039716,5397991.128301758,-25.376893173305646,-34.42456968892543
611,163638.24228934108,5397989.984912875,-25.19676973355793,-34.65987460648991
612,163644.09311367382,5397981.327090312,-23.832863225419715,-36.44162030514275
613,163644.9108021166,5397980.218079378,-23.642248958900296,-36.66985037647797
614,163742.51067548446,5397847.844226605,-0.8903947056357424,-63.911866607115776
615,163743.3039834052,5397846.714398374,-0.7054638694790185,-64.14438079608288
616,163753.28640219336,5397832.497430811,1.6215733440553066,-67.07017658576092
617,163754.07932058585,5397831.367272683,1.806413375892049,-67.3027586659968
618,163768.20321395967,5397811.236246247,5.09888448718749,-71.44564442053098
619,163768.96190907885,5397810.0850455975,5.275746609837142,-71.68255696871825
620,163794.15178726372,5397771.863242247,11.147848871276778,-79.5484531817985
621,163794.91048027735,5397770.712046634,11.324710503095162,-79.78536469347489
622,164131.27173318333,5398232.997221972,89.73508070631522,15.351099086548388
623,164130.46514936347,5398234.115770513,89.54705507801177,15.581291959834331
624,164107.46049410253,5398249.343266252,84.18435791885909,18.715050458144006
625,164108.2621901689,5398248.220536032,84.37124414553102,18.483997011761375
626,163831.04306651276,5398453.026002406,19.747706429770744,60.63215332989128
627,163832.3441197104,5398452.585063103,20.050999576648465,60.541409762255114
628,163883.15172015323,5398442.732680709,31.894940355915367,58.51382836718432
629,163883.49050499493,5398441.396022234,31.973915697539212,58.23874933074487
630,163833.16926878688,5398426.816462534,20.243353018073833,55.238333510858695
631,163834.5395711625,5398426.745807505,20.56278908757838,55.22379298500422
632,163896.33194786325,5398423.559479175,34.96743020180858,54.56805919569467
633,163894.97535086898,5398423.802129905,34.651189042583326,54.61799575775578
634,163652.00792946937,5398392.188028358,-21.987812312873558,48.11193848574575
635,163653.24922395474,5398392.780375303,-21.698449732349488,48.23384114814985
636,163757.36069555642,5398435.373730872,2.571346387631351,56.999385547031466
637,163756.0508257901,5398434.96527623,2.265997979014031,56.91532719452755
638,163632.6494700203,5398382.37102911,-26.500531774026413,46.091638802274645
639,163631.41330435648,5398381.769467932,-26.788698756680958,45.96783988716771
640,163626.68274531365,5398379.467411609,-27.89145623130642,45.49408578546138
641,163625.44724672392,5398378.864652435,-28.179467709944277,45.37004032739483
642,163582.72267839935,5398358.020614265,-38.13914407028545,41.08041957343923
643,163581.48649839213,5398357.419085699,-38.42731439658464,40.95662736958673
644,163778.7451697379,5398434.682389328,7.556357362245535,56.85711018708406
645,163777.3727724164,5398434.726759239,7.236432932437538,56.86624133954385
646,163621.74015992242,5398242.660434509,-29.043639923508735,17.33975007203179
647,163622.20905013257,5398243.957670058,-28.93433525584939,17.60671602604964
648,163644.5495235861,5398304.081216858,-23.726467884470182,29.9799045633103
649,163645.10622038276,5398305.3414233,-23.596694310549324,30.239250073293846
650,163632.6494700203,5398382.37102911,-26.500531774026413,46.091638802274645
651,163627.29500251304,5398389.0846878765,-27.748730773932607,47.47328326801997
652,163621.383937552,5398395.24528064,-29.12668018958938,48.741108934066744
653,163508.18314736395,5398162.390016516,-55.51531975272785,0.8204149918624353
654,163509.3091781641,5398163.185987752,-55.2528267005751,0.9842227294274863
655,163621.74015992242,5398242.660434509,-29.043639923508735,17.33975007203179
656,163622.85019497504,5398243.475263883,-28.784875697065402,17.50743874003416
657,163644.5495235861,5398304.081216858,-23.726467884470182,29.9799045633103
658,163643.67463434793,5398305.1413856745,-23.930416432223268,30.198083119777806
659,164120.74090935424,5398272.003478778,87.28020283958728,23.378432723375525
660,164121.8747311107,5398272.788948401,87.5445120693235,23.540079270468837
661,163589.45750759236,5397943.919740771,-36.56916403924125,-44.139905140043865
662,163588.3398870462,5397943.113914411,-36.82969654711658,-44.305741023250356
663,163544.62914864972,5397911.59745455,-47.019262526887275,-50.79170402181836
664,163543.5116706724,5397910.791466998,-47.27976180003258,-50.95757307758852
665,163585.07151965494,5397874.205749054,-37.59159731569298,-58.486769373915514
666,163585.94045101135,5397873.140570044,-37.38903763098297,-58.705979008555644
667,163593.342557821,5397864.066693072,-35.66350613705259,-60.57334706162338
668,163594.12818743396,5397862.930580304,-35.48036521857925,-60.80715458344855
669,163553.26754113528,5397853.067366113,-45.005536073849726,-62.836965119675256
670,163554.04254465798,5397851.925301145,-44.82487224114566,-63.071997580742284
671,163832.96889370354,5398431.763392277,20.196642868410677,56.2563921194276
672,163831.59883778822,5398431.837149717,19.877264252141956,56.27157110932242
673,163832.57927548568,5398438.354181665,20.105817577339806,57.61275055214011
674,163833.9462086993,5398438.474111134,20.424468249484292,57.637431563365425
675,163883.15172015323,5398442.732680709,31.894940355915367,58.51382836718432
676,163884.5265428494,5398442.784994189,32.215430173454195,58.5245942747284
677,164116.55529650048,5398278.05645341,86.30447971287333,24.624111002847158
678,164117.34095828707,5398276.920278349,86.48762813145271,24.390290661483434
679,164120.74090935424,5398272.003478778,87.28020283958728,23.378432723375525
680,164121.5600743931,5398270.895678215,87.47116132068726,23.15045174161972
681,164149.0160600158,5398233.765362504,93.87152396165635,15.509179375094334
682,164149.83554938776,5398232.657846891,94.06255804919786,15.28125703497463
683,163653.28810361348,5398313.990310723,-21.689386356563745,32.01915695532281
684,163652.6454863793,5398315.206643047,-21.839189149826225,32.26947334495799
685,163644.36028045174,5398334.745671953,-23.770583025837183,36.29052834521974
686,163644.03679464592,5398336.087283208,-23.845991954693574,36.566626644221515
687,163658.60917527328,5398377.931106424,-20.448972381654556,45.17792024431054
688,163659.83820969498,5398378.545481919,-20.162467788257715,45.304356295430296
689,163733.46040088293,5398412.482671711,-3.0001364663635997,52.28849595559538
690,163734.47006403594,5398413.415771115,-2.764770291087572,52.480524128648625
691,163832.70172692553,5398419.657245907,20.134362668807796,53.76499499683936
692,163831.3306807225,5398419.718552103,19.8147532030398,53.77761156996698
693,164085.05188060587,5398192.8081982555,78.96060617922146,7.08035668959306
694,164085.8530942919,5398191.685066353,79.1473799564954,6.849220578595492
695,164085.05188060587,5398192.8081982555,78.96060617922146,7.08035668959306
696,164084.23954811093,5398193.921825048,78.77124045678423,7.309536686319817
697,164097.24136484772,5398171.592274084,81.80214028498648,2.714203264815353
698,164098.03188620458,5398170.46000574,81.98642153530699,2.481186910300977
699,164101.32679015977,5398204.391713947,82.75450833685863,9.464198482123038
700,164101.04823791512,5398205.744765106,82.68957403055771,9.74265106812399
701,163832.70172692553,5398419.657245907,20.134362668807796,53.76499499683936
702,163834.06284498397,5398419.471335897,20.451657749411197,53.726735450880994
703,163838.10072222902,5398418.919816184,21.392941701959643,53.61323487151205
704,163839.46184021773,5398418.733907027,21.71023676630739,53.5749755011166
705,163891.94595992597,5398408.595806216,33.94499692539077,51.48859438381916
706,163893.30750160269,5398408.415236907,34.26239075715907,51.45143393303283
707,164034.41264424377,5398341.274940293,67.1559133507333,37.634225989222244
708,164035.2111116211,5398340.14943111,67.34204692619639,37.40260064338017
709,164090.17257718227,5398249.8963284055,80.15431000445395,18.828868465509757
710,164090.86804243957,5398248.709619275,80.31643238869876,18.58464841216572
711,164102.27300583155,5398229.24869709,82.97508404370726,14.579667466672191
712,164103.07658585676,5398228.127581273,83.16240944673851,14.348946258240034
713,164113.47174660547,5398213.624738828,85.58566240939834,11.36431854665065
714,164114.5590102487,5398212.785558805,85.83911831145801,11.191618611283417
715,164117.1341578525,5398210.797988134,86.43942014527047,10.782584415108104
716,164118.20714843564,5398209.940687202,86.68954880343688,10.606155268195366
717,163779.90289244216,5398441.242454484,7.826238227087373,58.20714569414619
718,163778.58498051844,5398441.623684804,7.519015082503543,58.28560138870702
719,163832.57927548568,5398438.354181665,20.105817577339806,57.61275055214011
720,163831.20932706614,5398438.429300461,19.78646401979624,57.628209703748524
721,163782.74153945735,5398408.780163434,8.487965347599243,51.52653437145193
722,163781.37379818122,5398408.88292587,8.169126305119832,51.54768247493965
723,163425.4838976533,5398611.97477859,-74.79363653065238,93.34318386907375
724,163426.2856171659,5398610.851989489,-74.60674483834167,93.11211830540398
725,163449.62909520633,5398578.159910854,-69.16506349375541,86.38421760495177
726,163450.430905604,5398577.037206329,-68.97815061490371,86.15316944672941
727,163461.09500275808,5398562.105189556,-66.49220492850213,83.08021935296006
728,163461.8967022989,5398560.98239351,-66.30531789189008,82.84915235987131
729,163566.42550494708,5398407.674020171,-41.938236244603125,51.29889445543009
730,163567.0083364421,5398406.424168294,-41.8023703180298,51.04167987413314
731,163460.0485995447,5398585.180979542,-66.73613571016537,87.82912581878588
732,163460.8520140078,5398584.05964527,-66.548848901909,87.59835965303742
733,163567.87265832743,5398404.570674496,-41.60088516354574,50.66023816880249
734,163568.9776103177,5398405.39152886,-41.343305867875934,50.82916675581339
735,163572.81524371868,5398408.242454885,-40.44870147133665,51.415876075020236
736,163573.86559042477,5398409.127629825,-40.20385140803461,51.59804158268372
737,163580.76345536133,5398414.940769311,-38.595865533874886,52.79436273610682
738,163581.83452486532,5398415.801536286,-38.34618470531459,52.971505180919706
739,163804.1816733842,5398116.624667818,13.485951363789155,-8.597913068539526
740,163805.20846435457,5398117.537524828,13.72531026559858,-8.410050700234947
741,163782.17381005437,5398101.630765936,8.355619923511796,-11.683598873235155
742,163783.31285043215,5398102.406793139,8.621145684657833,-11.523895539034214
743,163693.32972445185,5398238.666100596,-12.355141444736475,16.517731924195317
744,163694.440333157,5398239.480252451,-12.096243492106751,16.6852811613643
745,163899.04814343865,5397935.608723884,35.600612230866034,-45.850279599748355
746,163898.25355226654,5397936.737470124,35.41538225141218,-45.617988080450466
747,163782.17381005437,5398101.630765936,8.355619923511796,-11.683598873235155
748,163781.37923757292,5398102.759562009,8.170394301103002,-11.451297098459762
749,163743.9355649667,5398095.286017635,-0.5582336411978019,-12.98932302182348
750,163743.12792625994,5398096.403642016,-0.7465051779460623,-12.759320336969779
751,163660.65745390393,5398215.191742299,-19.97149085153987,11.686801673734365
752,163659.879733958,5398216.332348261,-20.152787919345897,11.921533877082084
753,163544.62914864972,5397911.59745455,-47.019262526887275,-50.79170402181836
754,163544.5358837978,5397912.972231242,-47.041003828844744,-50.50878040679883
755,163538.3841252162,5397949.250470869,-48.47506219203919,-43.04286193387191
756,163537.88047213395,5397950.533519811,-48.59247055668059,-42.77881552769838
757,163533.68644270467,5397961.217740697,-49.57015570130554,-40.58004505537423
758,163532.67307076775,5397962.150683565,-49.806386444415416,-40.388049096763744
759,163525.3597447933,5397968.883560949,-51.511221921508096,-39.002449515498874
760,163524.03524080952,5397969.241184756,-51.81998176470185,-38.928851948041945
761,163538.3841252162,5397949.250470869,-48.47506219203919,-43.04286193387191
762,163538.57777096832,5397950.615664193,-48.42992074075424,-42.761910538140455
763,163540.3322163051,5397962.984412134,-48.020935736773026,-40.2164710492657
764,163540.773590424,5397964.289429618,-47.91804544318985,-39.94790360376689
765,163545.45291288156,5397988.393793444,-46.827231911527,-34.98732070294464
766,163546.56038118343,5397989.211589081,-46.56906602949543,-34.81902158985244
767,163533.68644270467,5397961.217740697,-49.57015570130554,-40.58004505537423
768,163535.0141363002,5397961.570686976,-49.260652316352896,-40.50741010462517
769,163540.3322163051,5397962.984412134,-48.020935736773026,-40.2164710492657
770,163541.61007201238,5397962.469241323,-47.723050239534494,-40.322491167996766
771,163525.3597447933,5397968.883560949,-51.511221921508096,-39.002449515498874
772,163525.01065079792,5397970.2168010445,-51.59260046667869,-38.72807396805569
773,163525.3597447933,5397968.883560949,-51.511221921508096,-39.002449515498874
774,163524.20434414377,5397969.636157721,-51.78056148389775,-38.8475680713463
775,163370.74810403,5398202.517457104,-87.55329241934281,9.078483824268261
776,163371.22408150547,5398203.812673395,-87.442335614012,9.345034222726497
777,163402.61887424416,5398079.616197857,-80.12378361128704,-16.21411006078688
778,163402.19485332092,5398080.925124472,-80.22262863959432,-15.944738131649515
779,163392.32182134586,5398223.3032939285,-82.52416630335483,13.356126971100693
780,163392.25507184715,5398224.681234466,-82.53972651684496,13.63970169298625
781,163370.74810403,5398202.517457104,-87.55329241934281,9.078483824268261
782,163371.51799003134,5398203.661170528,-87.37382155027782,9.313855531042094
783,163392.32182134586,5398223.3032939285,-82.52416630335483,13.356126971100693
784,163393.4696812977,5398224.063496272,-82.25658457987481,13.512573611796611
785,163588.3443126843,5397874.697339928,-36.82866487085099,-58.385601913198656
786,163589.43512784157,5397875.534725039,-36.57438106269327,-58.21327136361767
787,163593.342557821,5397864.066693072,-35.66350613705259,-60.57334706162338
788,163594.71555542658,5397864.030943456,-35.34344177288331,-60.58070419146189
789,163747.14156630164,5398075.944547847,0.18912875376551597,-16.969721135595037
790,163748.25206739633,5398076.758788633,0.4480016209391664,-16.80215359676481
791,163404.09942347172,5398270.912714728,-79.77864750528693,23.153957788815035
792,163404.83557739996,5398269.748809894,-79.60704003997577,22.914430769473242
793,163494.82480846855,5398138.16308168,-58.629329731698675,-4.165392538691435
794,163494.03394879223,5398139.295063251,-58.81368984887313,-3.932435201088353
795,163487.93413198847,5398148.025909893,-60.235639879153574,-2.1356614352664565
796,163487.14332534096,5398149.157938818,-60.41998763459343,-1.9026943521997879
797,163778.75630168692,5398422.06925604,7.558952370548468,54.26137715859275
798,163779.1516420707,5398420.750963053,7.651111576107056,53.99007766695681
799,163782.74153945735,5398408.780163434,8.487965347599243,51.52653437145193
800,163782.91401385542,5398407.41462213,8.528171469103185,51.24551136274911
801,163532.1613656807,5397883.039026576,-49.92567184059201,-56.668915737608934
802,163531.03236646962,5397882.246616186,-50.188856869587575,-56.83199066718044
803,163544.5400930571,5397865.449290961,-47.04002259341252,-60.2888138752065
804,163543.40181222305,5397864.671978423,-47.30537129461215,-60.44878172628547
805,163553.26754113528,5397853.067366113,-45.005536073849726,-62.836965119675256
806,163554.41425218867,5397853.829525589,-44.738222174180166,-62.680115708842344
807,163794.15178726372,5397771.863242247,11.147848871276778,-79.5484531817985
808,163795.2818070095,5397772.654420728,11.41127180075749,-79.3856317743852
809,163801.72151263768,5397777.163149145,12.91245452600451,-78.45775326848505
810,163802.85187166385,5397777.953929044,13.17595654634296,-78.2950138876422
811,163814.5455179772,5397786.134592662,15.901904105803482,-76.6114656160405
812,163815.67551265628,5397786.925803575,16.165321191891408,-76.44863753417202
813,163833.3919077684,5397799.330618709,20.29525318437679,-73.8957755591183
814,163834.5212156834,5397800.122641299,20.558510176443633,-73.73278043743204
815,163791.64709872083,5397860.871356519,10.563972000219323,-61.23093470769719
816,163790.54045131698,5397860.052626057,10.305997480648927,-61.39942620414068
817,163772.3776948644,5397846.615253031,6.072012605598488,-64.16478451611987
818,163771.270529592,5397845.7971356325,5.813917363844354,-64.3331498465005
819,163760.13255087705,5397837.566940119,3.217503458230624,-66.02689158684856
820,163759.02649165702,5397836.747521763,2.959666052285243,-66.19552464905415
821,163756.95994538956,5397835.216530911,2.4779260882643115,-66.5105965213819
822,163755.8535055456,5397834.397561412,2.219999953715984,-66.67913721049985
823,163833.3919077684,5397799.330618709,20.29525318437679,-73.8957755591183
824,163832.6171325732,5397800.472807958,20.11464257790874,-73.66071752164783
825,163814.5455179772,5397786.134592662,15.901904105803482,-76.6114656160405
826,163813.75571319563,5397787.267403094,15.717789898898872,-76.37833770187137
827,163402.66340204058,5398493.062523726,-80.11340357800066,68.8715113358665
828,163403.79790021727,5398493.846819433,-79.84893666553523,69.03291629562597
829,163453.8703678056,5398317.754232879,-68.17636532543861,32.793757273379725
830,163454.98903560836,5398318.558913181,-67.91558868784412,32.95935730226137
831,163437.29489562643,5398341.013769468,-72.04033270762818,37.580478064656205
832,163438.4148749826,5398341.816910486,-71.77925032914507,37.745761314893656
833,163420.6860276,5398363.920014882,-75.91208511477406,42.294492926998515
834,163421.80377528892,5398364.72578998,-75.6515229681967,42.460318260525554
835,163405.0233752454,5398385.520456526,-79.56326181505777,46.73977852931921
836,163406.1237451947,5398386.346705347,-79.30675065528597,46.90981727426211
837,163423.85863308757,5398434.544121025,-75.1725077447874,56.82865511624456
838,163424.94899568765,5398435.382168161,-74.91832943385123,57.00112190777813
839,163373.0078896931,5398429.65864234,-87.02650573124167,55.823242892948144
840,163374.1091648816,5398430.483835311,-86.76978354793485,55.99306434799678
841,163414.15157349044,5398233.995804671,-77.43535499612796,15.556603463229735
842,163414.33213116843,5398232.631241113,-77.39326455244053,15.275781670836565
843,163475.8448352882,5398579.066350496,-63.053818910103956,86.57075930434135
844,163475.12902169063,5398580.2417074405,-63.22068476845594,86.81264312261118
845,163480.44233025808,5398571.292481207,-61.98208047566578,84.97092769928972
846,163479.76300059533,5398572.48828294,-62.14044143397094,85.21701897440462
847,163478.58329476177,5398574.564879934,-62.415446864413475,85.64437443644536
848,163477.86806917397,5398575.740565672,-62.58217564971177,85.88632591905557
849,163516.98851908572,5398515.923055639,-53.46266817494953,73.57611853999774
850,163516.29534307253,5398517.111088607,-53.62425690534053,73.82061103412286
851,163523.46731344977,5398503.0947260065,-51.95237333519851,70.93609895358625
852,163522.89617765366,5398504.351148955,-52.085512835728174,71.19466583539531
853,163521.9867642222,5398506.351737352,-52.29750944119861,71.60637902840031
854,163521.3498862306,5398507.5713185165,-52.44597433917619,71.85736401659707
855,163584.47039440475,5398422.699144137,-37.73172776472315,54.391005641845
856,163583.56335625536,5398423.7318491405,-37.943170659729766,54.60353225397199
857,163645.29536417435,5398406.629329432,-23.552602327325445,51.08390122616589
858,163643.92511775493,5398406.7006322555,-23.872025352683494,51.09857506575315
859,163666.5128591197,5398338.632506432,-18.606516477431683,37.090423534059454
860,163666.2960238277,5398339.992823598,-18.657063724993876,37.37037143568648
861,164085.77545729588,5398246.716221476,79.12928171971285,18.174415015873493
862,164084.66017694073,5398245.907576237,78.86929474210368,18.007999018552454
863,164081.3894693587,5398243.536115636,78.10684844331541,17.51996179048237
864,164080.27255629457,5398242.729394453,77.84648085910075,17.35394175621265
865,164090.17257718227,5398249.8963284055,80.15431000445395,18.828868465509757
866,164089.05621986202,5398249.088951207,79.89407197167327,18.66271342589394
867,163508.18314736395,5398162.390016516,-55.51531975272785,0.8204149918624353
868,163507.04984722013,5398161.603664607,-55.77950738748186,0.6585868738665965
869,163504.1756456953,5398159.609369537,-56.44952274642521,0.24816882282208041
870,163503.0533509501,5398158.808998383,-56.71114487349343,0.08345559950136305
871,163500.19040792488,5398156.767272659,-57.378535723475984,-0.33672349287094505
872,163499.0691430529,5398155.965689019,-57.63991777312407,-0.501686240844947
873,163646.09686450817,5398307.583965103,-23.365761728564266,30.70075632182332
874,163646.64233001304,5398308.81299989,-23.238606321096242,30.95368682822911
875,163646.64233001304,5398308.81299989,-23.238606321096242,30.95368682822911
876,163647.72123122492,5398309.664517356,-22.98709981520392,31.128925760546622
877,163650.12663007487,5398311.562965818,-22.42636871826103,31.519618958051296
878,163651.21742887486,5398312.400469433,-22.172088723208077,31.691973895153183
879,163471.57016684185,5398312.530831114,-64.05030210333635,31.71880181454344
880,163470.75496130553,5398313.642031108,-64.24033757068611,31.947482385730126
881,163477.0582177379,5398305.064444301,-62.77096300367281,30.182248888856662
882,163476.24090036657,5398306.173837166,-62.96149076841068,30.410557560219985
883,163474.35315411165,5398308.736185212,-63.40155002440021,30.9378786706923
884,163473.5381046707,5398309.847517902,-63.591549103802556,31.166586550336547
885,163479.7076216189,5398301.4695194615,-62.15335102449402,29.442427551284936
886,163478.89012802334,5398302.578760936,-62.3439198694871,29.670705066949154
887,163454.08187483813,5398307.630053904,-68.12706016743181,30.71024121504209
888,163455.2217496798,5398308.404633156,-67.86133988143453,30.869646566749367
889,163458.46786277535,5398310.61046356,-67.10462689102758,31.323597754226057
890,163459.6076215314,5398311.385252466,-66.83893366615922,31.483046252038946
891,163461.42896123047,5398317.078263074,-66.41435467902737,32.65464535661039
892,163462.27893413467,5398315.996788583,-66.21621446666705,32.43208217641643
893,163463.71101079177,5398314.174666058,-65.88237797428643,32.05709655541398
894,163464.7976930206,5398315.017020457,-65.62905760780474,32.230449764775216
895,163519.29283254512,5398354.610024999,-52.92550145358915,40.37853376888023
896,163518.1765690421,5398353.802505403,-53.185717616304295,40.212349424450196
897,163503.64131213952,5398343.287492169,-56.57408314557671,38.04840121882219
898,163502.52516741332,5398342.479835031,-56.83427161980044,37.882188568714554
899,163529.26705892023,5398361.799917353,-50.600374002652494,41.85818522657482
900,163528.1474738941,5398360.996308648,-50.86136445745492,41.69280572802549
901,163524.55824445953,5398358.4200527305,-51.698062520255704,41.162622432381056
902,163523.44208736782,5398357.612406994,-51.95825387704965,40.996412128797544
903,163519.29283254512,5398354.610024999,-52.92550145358915,40.37853376888023
904,163518.49962029204,5398355.740036829,-53.11040998831519,40.611085741810996
905,163527.16312054414,5398364.580625083,-51.090830574356495,42.4304438979523
906,163527.99384459315,5398363.48268397,-50.89717753121652,42.20449195191861
907,163500.22380377207,5398142.0805589175,-57.370750698540036,-3.359191191220944
908,163499.1088442478,5398141.271551648,-57.63066288612024,-3.525681692933958
909,163494.82480846855,5398138.16308168,-58.629329731698675,-4.165392538691435
910,163493.71144541234,5398137.352194773,-58.88886976091982,-4.33226986249575
911,163402.98622856376,5398071.274334033,-80.03814833686953,-17.930832698443908
912,163401.87386442212,5398070.462284603,-80.29745550555776,-18.097949264782898
913,163399.91381061787,5398069.031403238,-80.75437063202122,-18.39241899999496
914,163398.96128761134,5398068.351841439,-80.97641666414927,-18.532270135102124
915,163757.59446648712,5397841.9297927795,2.625841562271148,-65.12903373568122
916,163757.11579267666,5397841.975879264,2.514256204681814,-65.1195493191271
917,163757.11579267666,5397841.975879264,2.514256204681814,-65.1195493191271
918,163755.74955493936,5397842.096458287,2.19576765749774,-65.09473463231018
919,163747.0970385052,5397850.885936903,0.17874872047234192,-63.28589463787941
920,163746.79647588002,5397851.300715657,0.10868349594028359,-63.20053480801078
921,163746.31704541537,5397852.025209272,-0.0030782480033906268,-63.05143688259425
922,163757.11579267666,5397841.975879264,2.514256204681814,-65.1195493191271
923,163757.89545190617,5397840.836421292,2.6960053457903967,-65.35404527064193
924,163760.13255087705,5397837.566940119,3.217503458230624,-66.02689158684856
925,163760.8444578898,5397836.548118059,3.3834586386705325,-66.2365611440338
926,163761.63536400293,5397835.41623886,3.5678295808976515,-66.46949741390229
927,163761.80234323905,5397834.1872669365,3.606754705618087,-66.72241498328042
928,163761.84555781173,5397834.0552150775,3.616828608639949,-66.74959073447451
929,163772.73391723502,5397814.815618553,6.155052871719846,-70.70902373281345
930,163773.496904311,5397813.666822308,6.332915507714247,-70.94544146417732
931,163798.29287232118,5397782.601317637,12.113191964731456,-77.33859966526046
932,163798.79381002975,5397782.678127951,12.229967338940241,-77.32279240585419
933,163798.29287232118,5397782.601317637,12.113191964731456,-77.33859966526046
934,163799.0272623284,5397781.436501588,12.28438823612666,-77.57831420892563
935,163801.72151263768,5397777.163149145,12.91245452600451,-78.45775326848505
936,163802.49554104084,5397776.020545926,13.092891045119856,-78.69289649955726
937,163805.39505583394,5397771.740345892,13.768807270227086,-79.57374476652754
938,163805.15015295416,5397770.41921017,13.71171708727077,-79.84562928152151
939,163805.15015295427,5397770.379486651,13.711717087297927,-79.8538042249344
940,163747.14156630164,5398075.944547847,0.18912875376551597,-16.969721135595037
941,163746.02455725655,5398075.137973275,-0.07126120491494703,-17.135710997777664
942,163574.7188070112,5398090.64651921,-40.00495504935008,-13.944113478857489
943,163573.9360951234,5398091.784305065,-40.18741580650887,-13.709961642427146
944,163617.85938587552,5398331.483354286,-29.948300989740332,35.61915625045518
945,163627.47997117467,5398325.333538782,-27.705612070130186,34.35354850180778
946,163627.47997117467,5398325.333538782,-27.705612070130186,34.35354850180778
947,163628.6419683517,5398324.590748466,-27.434734767710196,34.20068518758893
948,163629.7843340241,5398323.821512898,-27.168433835287388,34.04237954514036
949,163637.85922218944,5398318.38411388,-25.286067882241554,32.923384296355295
950,163645.71252917498,5398309.826221836,-23.455355507566082,31.162203903992207
951,163645.71252917498,5398309.826221836,-23.455355507566082,31.162203903992207
952,163646.64233001304,5398308.81299989,-23.238606321096242,30.95368682822911
953,163647.62036338574,5398307.841015506,-23.010613476612406,30.753656279702483
954,163649.48255576918,5398305.990339916,-22.57651117465602,30.37279455068102
955,163649.48255576918,5398305.990339916,-22.57651117465602,30.37279455068102
956,163650.46058854726,5398305.018355512,-22.348518468786267,30.172763998129483
957,163652.51364435727,5398308.473176134,-21.869923313368318,30.883752440941862
958,163650.96788158838,5398310.474036519,-22.230261580358828,31.29552160802419
959,163650.96788158838,5398310.474036519,-22.230261580358828,31.29552160802419
960,163650.12663007487,5398311.562965818,-22.42636871826103,31.519618958051296
961,163649.37655535238,5398312.719079871,-22.601221309520966,31.757542665309956
962,163642.79067563155,5398322.870096877,-24.136479198362537,33.84658188458204
963,163639.92159716855,5398331.943517646,-24.80530030210879,35.71385605291994
964,163639.92159716855,5398331.943517646,-24.80530030210879,35.71385605291994
965,163639.50675065315,5398333.2554631205,-24.90200665151424,35.98384925147897
966,163639.11232306977,5398334.574038951,-24.99395307091855,36.25520695101878
967,163637.60799728223,5398339.603014901,-25.344631815535976,37.290150345042264
968,163637.60799728223,5398339.603014901,-25.344631815535976,37.290150345042264
969,163637.2135691428,5398340.921591536,-25.436578364564895,37.56150821017849
970,163636.83797020224,5398342.246282337,-25.52413557195115,37.834124346583394
971,163635.58541772893,5398346.66387771,-25.816122542157743,38.743248031649046
972,163635.58541772893,5398346.66387771,-25.816122542157743,38.743248031649046
973,163635.20981830853,5398347.9885692485,-25.903679861400008,39.015864319850664
974,163594.53327850255,5398404.977023241,-35.38593299614038,50.74386313615028
975,163581.87705051329,5398414.134980962,-38.33627139998812,52.62853467541396
976,163581.87705051329,5398414.134980962,-38.33627139998812,52.62853467541396
977,163580.76345536133,5398414.940769311,-38.595865533874886,52.79436273610682
978,163579.6279018938,5398415.718675465,-38.86057844894718,52.954452751143805
979,163578.826591205,5398416.267609875,-39.04737483888382,53.067421285163704
980,163578.826591205,5398416.267609875,-39.04737483888382,53.067421285163704
981,163577.69103741544,5398417.045515895,-39.312087829026574,53.22751127260128
982,163576.55676012608,5398417.825042959,-39.576503249658536,53.38793486454304
983,163570.5988055167,5398421.919617566,-40.96538327831839,54.230582151484384
984,163570.5988055167,5398421.919617566,-40.96538327831839,54.230582151484384
985,163569.46452704575,5398422.69914414,-41.22979897439416,54.39100564242
986,163569.70455655074,5398421.341541733,-41.173844841201856,54.11161642742232
987,163571.15032525198,5398413.164296061,-40.83681654762616,52.42877155550218
988,163571.15032525198,5398413.164296061,-40.83681654762616,52.42877155550218
989,163571.3903542364,5398411.806694984,-40.78086253578137,52.14938261439025
990,163571.90224312776,5398410.526248564,-40.66153429233393,51.88587179683057
991,163572.30335508462,5398409.522901051,-40.56802965480912,51.67938684025603
992,163572.30335508462,5398409.522901051,-40.56802965480912,51.67938684025603
993,163572.81524371868,5398408.242454885,-40.44870147133665,51.415876075020236
994,163573.15347700857,5398406.905620546,-40.369854703921334,51.14076084656594
995,163574.60321323725,5398401.175675909,-40.031901525885495,49.96156086459408
996,163574.60321323725,5398401.175675909,-40.031901525885495,49.96156086459408
997,163574.94144599288,5398399.838842502,-39.95305488301321,49.68644582780229
998,163574.9450652466,5398398.457759496,-39.9522111858816,49.402224398280225
999,163574.96009066433,5398392.724141263,-39.94870855721578,48.222268404884886
1000,163574.96009066433,5398392.724141263,-39.94870855721578,48.222268404884886
1001,163574.9637098909,5398391.343059311,-39.947864866414115,47.938047192133126
1002,163568.64364418958,5398423.805510534,-41.42115790200604,54.61869147790395
1003,163511.36401735723,5398501.005107321,-54.77381581436623,70.50606367880854
1004,163511.36401735723,5398501.005107321,-54.77381581436623,70.50606367880854
1005,163510.54312056873,5398502.111477523,-54.96517798979174,70.73375029800047
1006,163509.75563621407,5398503.246415462,-55.148751273707916,70.9673160446626
1007,163483.8932344726,5398540.519699077,-61.177627897793656,78.63801064132849
1008,163467.2478930138,5398564.519009341,-65.05788275672577,83.57697393375057
1009,163467.2478930138,5398564.519009341,-65.05788275672577,83.57697393375057
1010,163466.4606022144,5398565.65412555,-65.24141092027945,83.81057636768341
1011,163465.64823380997,5398566.767800516,-65.43078501370802,84.03976627853675
1012,163455.60669060456,5398580.533723721,-67.77160493082329,86.8727389201947
1013,163455.60669060456,5398580.533723721,-67.77160493082329,86.8727389201947
1014,163454.79431957926,5398581.647399449,-67.96097963520944,87.10192898763631
1015,163454.0221526623,5398582.791175298,-68.14098221664247,87.33731354135642
1016,163440.5272268341,5398602.780562822,-71.28683246221473,91.45105056680822
1017,163440.5272268341,5398602.780562822,-71.28683246221473,91.45105056680822
1018,163439.755056373,5398603.924339992,-71.46683586983674,91.68643539230575
1019,163425.1941167961,5398624.018076109,-74.86118837883208,95.82164694626357
1020,163423.53250341982,5398627.698135297,-75.2485329937177,96.57898859667722
1021,163422.07020938792,5398626.344500582,-75.58941356600792,96.30041591705665
1022,163424.77186306988,5398623.721443356,-74.95962144954679,95.7606010969829
1023,163424.77186306988,5398623.721443356,-74.95962144954679,95.7606010969829
1024,163425.76219638024,5398622.7599191405,-74.72876132276691,95.56272320994637
1025,163414.38351249052,5398235.357969853,-77.38128686936388,15.836931679239271
1026,163415.1534489075,5398239.879763409,-77.20180424772397,16.767498938932462
1027,163418.392973567,5398244.710666667,-76.4466271111213,17.76167975494205
1028,163418.392973567,5398244.710666667,-76.4466271111213,17.76167975494205
1029,163419.16095057616,5398245.855902876,-76.26760125402662,17.997364844867093
1030,163419.9459238674,5398246.987659737,-76.0846133330509,18.23027593814011
1031,163421.11443628577,5398248.672394329,-75.81221723950567,18.576987665147456
1032,163421.11443628577,5398248.672394329,-75.81221723950567,18.576987665147456
1033,163421.89941004972,5398249.804151374,-75.62922920833614,18.80989879636965
1034,163422.6775445314,5398250.941332812,-75.44783550662375,19.043926246323522
1035,163449.2840047849,5398289.824430649,-69.24550875153992,27.045914253619102
1036,163463.08468054372,5398300.90130831,-66.02838405017914,29.325491939896665
1037,163463.08468054372,5398300.90130831,-66.02838405017914,29.325491939896665
1038,163464.15628875492,5398301.761415017,-65.77857764166018,29.502498504040773
1039,163465.29410391976,5398302.539694151,-65.51333749426787,29.662665276845814
1040,163473.21533741584,5398307.957906648,-63.66679052868422,30.777712015184676
1041,163473.21533741584,5398307.957906648,-63.66679052868422,30.777712015184676
1042,163474.35315411165,5398308.736185212,-63.40155002440021,30.9378786706923
1043,163475.49082836846,5398309.514720019,-63.13634272458057,31.09809806003085
1044,163509.4722320691,5398332.76882708,-55.21481662378379,35.88370147574861
1045,163509.4722320691,5398332.76882708,-55.21481662378379,35.88370147574861
1046,163510.60991226314,5398333.547359676,-54.949607939913065,36.04392041008035
1047,163511.74787611899,5398334.325382784,-54.68433313063097,36.204034493711845
1048,163530.05491896978,5398346.84183535,-50.41671313916268,38.779871011312366
1049,163530.05491896978,5398346.84183535,-50.41671313916268,38.779871011312366
1050,163531.1928861109,5398347.619857232,-50.1514375640397,38.939984842716
1051,163532.429671115,5398348.220296171,-49.86312620475872,39.06355280545836
1052,163536.8256523451,5398350.354471687,-48.83836335624125,39.50275770012797
1053,163542.20238375038,5398354.164497665,-47.58497433973597,40.28684600272828
1054,163549.50494234648,5398363.797110666,-45.88264888457721,42.269199724446224
1055,163555.70543798362,5398366.593182026,-44.43722925270487,42.84462017038794
1056,163565.59371645362,5398368.214568408,-42.132137424183,43.17829508581801
1057,163565.59371645362,5398368.214568408,-42.132137424183,43.17829508581801
1058,163566.94870655387,5398368.436746022,-41.81627085374776,43.22401836142723
1059,163568.30887678088,5398368.614538083,-41.49919672550669,43.26060726560482
1060,163570.64244105647,5398368.919565017,-40.95521124215868,43.32338060434125
1061,163570.64244105647,5398368.919565017,-40.95521124215868,43.32338060434125
1062,163572.00261143583,5398369.097356548,-40.63813707840076,43.35996939927119
1063,163638.6868053669,5398366.87887286,-25.09314701886231,42.90341421595437
1064,163644.4604679935,5398373.767720648,-23.747227950988645,44.32111189050744
1065,163655.2470603724,5398382.258292995,-21.232726966242694,46.06843815508313
1066,163655.2470603724,5398382.258292995,-21.232726966242694,46.06843815508313
1067,163656.32712571207,5398383.1084559215,-20.980949086375134,46.243398328464934
1068,163657.50830652914,5398383.808832293,-20.70559981726747,46.3875330203995
1069,163662.26045457146,5398386.626597145,-19.59780965404464,46.9674179010195
1070,163677.44443311563,5398394.615394407,-16.05821831134348,48.61148083433119
1071,163711.7531001783,5398411.745242556,-8.060402682102136,52.13673594718222
1072,163727.8721624452,5398417.475683142,-4.302830640862098,53.316037993656494
1073,163742.19898091035,5398421.700541073,-0.9630549384503837,54.18549707427124
1074,163753.99884693447,5398423.897467958,1.7876538762708947,54.63761595264117
1075,163764.68551805065,5398424.91143439,4.278861859416352,54.84628624073039
1076,163776.8015095208,5398424.911435295,7.103263803294382,54.84628642702634
1077,163776.8015095208,5398424.911435295,7.103263803294382,54.84628642702634
1078,163778.17744033484,5398424.911434392,7.424011938137738,54.846286241305364
1079,163834.81816863446,5398555.220938271,20.627733936981826,81.66346762047664
1080,163835.006040385,5398479.250979726,20.671529390181732,66.02915011465856
1081,163831.24922599472,5398454.3902642885,19.795765001206107,60.91291303858134
1082,163831.24922599472,5398454.3902642885,19.795765001206107,60.91291303858134
1083,163831.04306651276,5398453.026002406,19.747706429770744,60.63215332989128
1084,163672.84307987738,5397678.705093502,-17.13085616047107,-98.72003236434587
1085,163684.19039425778,5397753.244462946,-14.485643271969224,-83.38012444678643
1086,163735.19698493936,5397744.61101529,-2.595315169090668,-85.15685388584103
1087,163750.28077594188,5397733.412124543,0.9209210987823013,-87.46154138335785
1088,163775.17189833845,5397726.9473122135,6.72337933387,-88.79197423495405
1089,163583.41545266705,5398421.819378591,-37.977648992217624,54.20995336618847
1090,163578.74597806414,5398417.925281627,-39.066166855394435,53.408563586590304
1091,163578.74597806414,5398417.925281627,-39.066166855394435,53.408563586590304
1092,163577.69103741544,5398417.045515895,-39.312087829026574,53.22751127260128
1093,163576.6347949247,5398416.167283816,-39.55831227969618,53.04677457846495
1094,163572.44659573113,5398412.684927238,-40.53463831729762,52.330119344559165
1095,163572.44659573113,5398412.684927238,-40.53463831729762,52.330119344559165
1096,163571.3903542364,5398411.806694984,-40.78086253578137,52.14938261439025
1097,163570.33459476833,5398410.927895155,-41.02697438731909,51.968529079338765
1098,163567.48126367232,5398408.552820127,-41.69212456623291,51.47974801654769
1099,163567.48126367232,5398408.552820127,-41.69212456623291,51.47974801654769
1100,163566.42550494708,5398407.674020171,-41.938236244603125,51.29889445543009
1101,163897.7028181236,5398423.4959510965,35.28699865294777,54.554985367953776
1102,163935.44961692815,5398421.746630444,44.08628942345419,54.19498208478748
1103,163949.2309698884,5398419.795513986,47.29890971838432,53.79345002148821
1104,163962.25535031134,5398416.676801131,50.3350694478668,53.15163123006218
1105,163973.71012591396,5398412.451945495,53.00533300479,52.282172621703836
1106,163986.93488142022,5398405.861174554,56.08820288392883,50.92581798525066
1107,163996.48609373032,5398400.1000149865,58.31472001886547,49.7401940939109
1108,164008.78689746303,5398391.573505407,61.1822042078023,47.985472088892664
1109,164025.40689743846,5398375.519107795,65.05655162324433,44.68154045016411
1110,164104.89747287417,5398262.241338546,83.58688290763828,21.3694228090001
1111,164104.89747287417,5398262.241338546,83.58688290763828,21.3694228090001
1112,164105.69051419897,5398261.111206985,83.77175159666379,21.136846195937252
1113,164106.4663486197,5398259.9695285065,83.95260912296888,20.901893272894668
1114,164111.56818331286,5398252.461922717,85.14191598739143,19.356857644788448
1115,164127.43121075083,5398229.89393487,88.83980283734508,14.712454854150963
1116,164132.3321953124,5398223.288171491,89.98228881191136,13.353014833101227
1117,164132.3321953124,5398223.288171491,89.98228881191136,13.353014833101227
1118,164133.1530325777,5398222.181810047,90.17363711167556,13.125330016303522
1119,164134.00466001814,5398221.101770691,90.37216301887207,12.903062181327101
1120,164165.45689820102,5398181.213678185,97.70410633378583,4.694250239311074
1121,163522.1270980842,5397895.367873361,-52.26479571458688,-54.13168774889563
1122,163508.69252025345,5397885.680357726,-55.39657802343477,-56.12534021603119
1123,163615.28908154852,5397907.33279573,-30.54747379003807,-51.669353968208895
1124,163590.25356215297,5397942.792240053,-36.38359292407968,-44.37194033584431
1125,163590.25356215297,5397942.792240053,-36.38359292407968,-44.37194033584431
1126,163589.45750759236,5397943.919740771,-36.56916403924125,-44.139905140043865
1127,163588.67458737965,5397945.057385432,-36.75167335976618,-43.905782360799805
1128,163555.11913693996,5397993.815894623,-44.57390397812774,-33.871473689109266
1129,163555.11913693996,5397993.815894623,-44.57390397812774,-33.871473689109266
1130,163554.33620824694,5397994.953542269,-44.756415275526365,-33.637350295586856
1131,163524.01990190384,5397895.031795587,-51.82355747166112,-54.200851227790906
1132,163531.38614026393,5397884.180972035,-50.10638739981211,-56.43390787105833
1133,163531.38614026393,5397884.180972035,-50.10638739981211,-56.43390787105833
1134,163532.1613656807,5397883.039026576,-49.92567184059201,-56.668915737608934
1135,163532.9558058509,5397881.910156625,-49.74047706172385,-56.90123271620449
1136,163543.7456557244,5397866.5781599805,-47.225216710812525,-60.05649708827346
1137,163543.7456557244,5397866.5781599805,-47.225216710812525,-60.05649708827346
1138,163544.5400930571,5397865.449290961,-47.04002259341252,-60.2888138752065
1139,163545.33531096918,5397864.3210895555,-46.85464651236691,-60.52099326982858
1140,163552.47232516485,5397854.195566883,-45.19091170226758,-62.604785855767005
1141,163552.47232516485,5397854.195566883,-45.19091170226758,-62.604785855767005
1142,163553.26754113528,5397853.067366113,-45.005536073849726,-62.836965119675256
1143,163563.02111070885,5398635.057979319,-42.73184671617457,98.09361543660444
1144,163519.42863077164,5398603.457757799,-52.893845045122866,91.5904146192492
1145,163519.42863077164,5398603.457757799,-52.893845045122866,91.5904146192492
1146,163518.31322102607,5398602.649175741,-53.153862185394054,91.42401162431275
1147,163517.207580174,5398601.829087185,-53.41160206409115,91.2552406375494
1148,163506.5690147473,5398593.938118635,-55.89159595854636,89.63131046696142
1149,163479.71737485004,5398575.34995431,-62.15107741403125,85.80593964311998
1150,163479.71737485004,5398575.34995431,-62.15107741403125,85.80593964311998
1151,163478.58329476177,5398574.564879934,-62.415446864413475,85.64437443644536
1152,163477.47379328273,5398573.749344694,-62.67408670762246,85.47654050416946
1153,163467.57010174598,5398566.46966137,-64.98277153105512,83.97841041936502
1154,163467.57010174598,5398566.46966137,-64.98277153105512,83.97841041936502
1155,163466.4606022144,5398565.65412555,-65.24141092027945,83.81057636768341
1156,163465.314160272,5398564.891269362,-65.50866208652863,83.65358357623612
1157,163462.72026732375,5398563.165261205,-66.1133337143807,83.29837791270305
1158,163462.24760709488,5398562.856970695,-66.2235172245383,83.23493294292086
1159,163462.24760709488,5398562.856970695,-66.2235172245383,83.23493294292086
1160,163461.09500275808,5398562.105189556,-66.49220492850213,83.08021935296006
1161,163459.9480553673,5398561.343242914,-66.75957392162358,82.92341374256858
1162,163458.95802481665,5398560.68554,-66.99036347101153,82.78806107967625
1163,163458.95802481665,5398560.68554,-66.99036347101153,82.78806107967625
1164,163457.8110777797,5398559.923593215,-67.25773238164706,82.63125543976878
1165,163426.40305774842,5398539.420013904,-74.57936784568176,78.41169977466487
1166,163394.2531771084,5398586.979642073,-82.07394107965376,88.19928346560528
1167,163530.47246562314,5398348.792593952,-50.319377350975174,39.181329429251036
1168,163525.2786664568,5398357.247315295,-51.5301223814287,40.92127769864919
1169,163525.2786664568,5398357.247315295,-51.5301223814287,40.92127769864919
1170,163524.55824445953,5398358.4200527305,-51.698062520255704,41.162622432381056
1171,163523.83595941088,5398359.591746291,-51.86643696162853,41.40375234080682
1172,163523.37696651687,5398360.336326205,-51.97343443065668,41.55698394718564
1173,163523.37696651687,5398360.336326205,-51.97343443065668,41.55698394718564
1174,163522.654681167,5398361.5080199065,-52.14180894224227,41.798113884552436
1175,163521.86405293999,5398362.640242352,-52.326115105448366,42.03112079336344
1176,163520.78477402363,5398364.185827876,-52.57770965937713,42.3491961916136
1177,163520.78477402363,5398364.185827876,-52.57770965937713,42.3491961916136
1178,163519.99414533714,5398365.318050476,-52.76201592969008,42.58220313204893
1179,163519.2044912885,5398366.451106618,-52.94609499870454,42.815381612346044
1180,163504.520025586,5398387.521464519,-56.36924312299107,47.151578073375816
1181,163504.520025586,5398387.521464519,-56.36924312299107,47.151578073375816
1182,163503.7303677321,5398388.654521949,-56.553323079065024,47.38475681855053
1183,163502.9406741321,5398389.787549048,-56.73741136802858,47.6179293218523
1184,163488.2228916932,5398410.9041132005,-60.16832607546,51.96363484704315
1185,163488.2228916932,5398410.9041132005,-60.16832607546,51.96363484704315
1186,163487.43319427987,5398412.03714159,-60.35241525336914,52.1968076159892
1187,163486.64324894827,5398413.169958241,-60.5365622243903,52.429936809888886
1188,163478.6055586599,5398424.696350589,-62.41025684778725,54.802022843882725
1189,163471.98741641373,5398434.076866012,-63.95303556887173,56.73249587948362
1190,163471.98741641373,5398434.076866012,-63.95303556887173,56.73249587948362
1191,163471.19168057313,5398435.204736264,-64.13853238607715,56.96460712409254
1192,163470.39639176326,5398436.3329889625,-64.32392499435572,57.19679707452724
1193,163455.65640388674,5398457.244135002,-67.76001609047441,61.50022836301602
1194,163455.65640388674,5398457.244135002,-67.76001609047441,61.50022836301602
1195,163454.86111127367,5398458.3723889375,-67.94540958533076,61.73241856817023
1196,163539.56751310764,5398130.6196502885,-48.199198423960176,-5.71780093438025
1197,163539.4750562259,5398137.394949083,-48.22075137710995,-4.323471194272784
1198,163541.61239044915,5398141.988382963,-47.722509780476784,-3.3781606386075254
1199,163542.26289445529,5398143.637096803,-47.57086847370097,-3.03886184033648
1200,163542.26289445529,5398143.637096803,-47.57086847370097,-3.03886184033648
1201,163542.77011315338,5398144.922651285,-47.45262891564174,-2.774299803749443
1202,163543.8876068588,5398145.72867379,-47.19212597606571,-2.6084235548853485
1203,163652.7939798214,5398224.2793618,-21.804573314418903,13.556997885170745
1204,163652.7939798214,5398224.2793618,-21.804573314418903,13.556997885170745
1205,163653.9114927618,5398225.085378197,-21.544065890907333,13.72287287711211
1206,163655.03485496104,5398225.884504769,-21.282194925827866,13.887329970322867
1207,163682.3536226597,5398245.318203795,-14.91381964407033,17.8867084970681
1208,163686.8292259163,5398249.128787597,-13.87049582124159,18.67091159765289
1209,163686.8292259163,5398249.128787597,-13.87049582124159,18.67091159765289
1210,163687.875069403,5398250.019231107,-13.626695519457272,18.854161356227124
1211,163654.43695090746,5398314.748773696,-21.421574470236678,32.175245640409514
1212,163660.63293225638,5398318.839324671,-19.977207180175782,33.01706487976517
1213,163660.63293225638,5398318.839324671,-19.977207180175782,33.01706487976517
1214,163661.78178076097,5398319.597787146,-19.709395011640765,33.173153462504104
1215,163661.4779859208,5398320.945789627,-19.78021370933034,33.450567050454254
1216,163660.90235678374,5398323.499978227,-19.91440066857676,33.97620897923943
1217,163666.03304502813,5398337.33836306,-18.718367650016347,36.8240939379026
1218,163666.03304502813,5398337.33836306,-18.718367650016347,36.8240939379026
1219,163666.5128591197,5398338.632506432,-18.606516477431683,37.090423534059454
1220,163666.99020833182,5398339.927350921,-18.495239901685295,37.356897417202674
1221,163667.80416521284,5398342.135267758,-18.305495512818922,37.81127798447238
1222,163675.64105736467,5398356.760846916,-16.478609658522217,40.82116442696193
1223,163685.2701933184,5398371.616894782,-14.233927465356487,43.87848041958503
1224,163695.4670586752,5398383.78443055,-11.85689984808296,46.38251123804608
1225,163709.08143239928,5398395.583268393,-8.683204677880013,48.810665479034554
1226,163720.64752749263,5398403.187996067,-5.986991037812146,50.37568840760355
1227,163732.34530667044,5398411.67376452,-3.2600800515946986,52.12202604974388
1228,163732.34530667044,5398411.67376452,-3.2600800515946986,52.12202604974388
1229,163733.46040088293,5398412.482671711,-3.0001364663635997,52.28849595559538
1230,163683.69225418672,5398286.8659628695,-14.601766478928639,26.437073265887804
1231,163675.67165389314,5398280.507944059,-16.471477192748935,25.12861809885672
1232,163675.67165389314,5398280.507944059,-16.471477192748935,25.12861809885672
1233,163674.59465415127,5398279.654193564,-16.72254044019222,24.952919618108993
1234,163575.8486036919,5398091.438037106,-39.74158411936642,-13.78122222119292
1235,163599.0477736957,5398107.690968035,-34.333542935404154,-10.436433209707019
1236,163599.0477736957,5398107.690968035,-34.333542935404154,-10.436433209707019
1237,163600.17757455574,5398108.482484478,-34.07017103115986,-10.273542251035977
1238,163441.49018579972,5398644.321444526,-71.06235366647698,100.0
1239,163457.35466786748,5398622.145380881,-67.36412772258981,95.43625366254497
1240,163483.90436642175,5398605.32241184,-61.17503288946358,91.97415305839431
1241,163492.11974484235,5398605.322411839,-59.2599167524125,91.97415305820266
1242,163507.29724065782,5398615.93163651,-55.72183662169788,94.15748960572944
1243,163507.29724065782,5398615.93163651,-55.72183662169788,94.15748960572944
1244,163508.42805024356,5398616.722082499,-55.45822956981225,94.32016026923807
1245,163509.2216208797,5398615.592326245,-55.27323749113528,94.08766089290793
1246,163517.51965261888,5398603.778931258,-53.338853744473475,91.65651084903783
1247,163517.51965261888,5398603.778931258,-53.338853744473475,91.65651084903783
1248,163518.31322102607,5398602.649175741,-53.153862185394054,91.42401162431275
1249,163507.6137193708,5398617.834089039,-55.648061141223444,94.54900682437378
1250,163496.59648981463,5398632.878605688,-58.21632678017376,97.64510894841442
1251,163496.59648981463,5398632.878605688,-58.21632678017376,97.64510894841442
1252,163495.78215608938,5398633.990613048,-58.40615901654036,97.8739556724048
1253,163456.6848314694,5398559.127784349,-67.52027567213628,82.46748111741212
1254,163428.30219512747,5398539.07246515,-74.1366531641557,78.34017561337578
1255,163428.30219512747,5398539.07246515,-74.1366531641557,78.34017561337578
1256,163427.17595391325,5398538.276654556,-74.3991952666794,78.17640093548519
1257,163426.08458131796,5398537.439773594,-74.6536090211967,78.00417413780332
1258,163409.1537666719,5398524.456943748,-78.60041155202028,75.33235901730635
1259,163409.1537666719,5398524.456943748,-78.60041155202028,75.33235901730635
1260,163408.062397344,5398523.6200619545,-78.85482454486237,75.16013204866152
1261,163407.01572221547,5398522.730536818,-79.0988187136391,74.97707128772035
1262,163390.2181514537,5398508.454960922,-83.01456028781045,72.03921413459457
1263,163390.2181514537,5398508.454960922,-83.01456028781045,72.03921413459457
1264,163389.17147975627,5398507.565435273,-83.25855365674919,71.85615326823901
1265,163511.83085095932,5398502.588626302,-54.664990569940855,70.83194563267205
1266,163520.69903276273,5398505.874589779,-52.59769711022374,71.50818394193172
1267,163520.69903276273,5398505.874589779,-52.59769711022374,71.50818394193172
1268,163521.9867642222,5398506.351737352,-52.29750944119861,71.60637902840031
1269,163522.67538915103,5398507.54431415,-52.136981630300085,71.85180662454692
1270,163526.00539783988,5398513.311298464,-51.360711439198326,73.03862922592259
1271,163529.32271866561,5398515.492883818,-50.58739896107676,73.48759087787963
1272,163602.3344006786,5398566.979465751,-33.56738560835343,84.08332614805562
1273,163602.3344006786,5398566.979465751,-33.56738560835343,84.08332614805562
1274,163603.4614995342,5398567.774269782,-33.30464357799458,84.2468936794069
1275,163811.37105761358,5397875.112995494,15.161894339049951,-58.30006163882807
1276,163827.23779154365,5397888.6607302595,18.86064522258542,-55.511991316514816
1277,163827.23779154365,5397888.6607302595,18.86064522258542,-55.511991316514816
1278,163828.282343141,5397889.55261401,19.104144367440483,-55.328445162220824
1279,163829.2025063837,5397890.577082517,19.318646899715247,-55.11761358859531
1280,163848.67607385435,5397912.258032467,23.85819960193328,-50.65575969465378
1281,163864.82853196864,5397922.13598224,27.623556668156752,-48.622916633967094
1282,163899.51568529996,5397864.38929923,35.709602580125306,-60.50695598819797
1283,163848.16305454858,5397825.902758512,23.738607843550525,-68.42733410623737
1284,163848.16305454858,5397825.902758512,23.738607843550525,-68.42733410623737
1285,163847.061941238,5397825.077517642,23.48192339618261,-68.59716541887214
1286,163829.4763531115,5397890.229786223,19.38248428621536,-55.18908579458654
1287,163846.78074836047,5397900.04379854,23.41637352254098,-53.169400809771325
1288,163846.78074836047,5397900.04379854,23.41637352254098,-53.169400809771325
1289,163847.97476106245,5397900.720969173,23.694714078061338,-53.03004176719665
1290,163849.07711574752,5397901.544764989,23.951687906662016,-52.860507840985136
1291,163871.80796806014,5397918.531612821,29.25055788490195,-49.3646816287049
1292,163871.80796806014,5397918.531612821,29.25055788490195,-49.3646816287049
1293,163872.91032700028,5397919.35540744,29.507532705416537,-49.19514794877971
1294,163784.95608897912,5398569.867258985,9.00420687760655,84.67762259326125
1295,163786.67094843183,5398464.17959233,9.40396387509594,62.9275180969629
1296,163786.67094843183,5398464.17959233,9.40396387509594,62.9275180969629
1297,163786.69338138058,5398462.796987025,9.409193299714076,62.6429833843375
1298,163622.2449237316,5397966.788465872,-28.92597263335294,-39.43361180990944
1299,163590.58913468083,5397944.709036334,-36.305366416380714,-43.977471229565566
1300,163590.58913468083,5397944.709036334,-36.305366416380714,-43.977471229565566
1301,163589.45750759236,5397943.919740771,-36.56916403924125,-44.139905140043865
1302,163944.15648467682,5398325.328191795,46.11597838906866,34.35244811310548
1303,163997.33212186032,5398251.079267011,58.511940650858776,19.072312559771376
1304,164001.84627301415,5398244.823371004,59.564250511363326,17.78487386260879
1305,164001.84627301415,5398244.823371004,59.564250511363326,17.78487386260879
1306,164002.65319352038,5398243.705106739,59.752354625828985,17.55473949219531
1307,164003.43536035297,5398242.566981411,59.934688323228414,17.320517793438952
1308,164009.41028661144,5398233.872902182,61.32752467347905,15.5313106162114
1309,164010.5123495703,5398232.520974874,61.58443049673835,15.253089314151126
1310,164028.85000884975,5398207.228571805,65.85918759298877,10.048012628165054
1311,164028.85000884975,5398207.228571805,65.85918759298877,10.048012628165054
1312,164029.65930198683,5398206.112343509,66.04784479988444,9.818297252119933
1313,164030.4746790949,5398205.001316612,66.23792026293998,9.589652303518733
1314,164054.35835811752,5398172.457495961,71.80552978335294,2.892262510946736
1315,164054.35835811752,5398172.457495961,71.80552978335294,2.892262510946736
1316,164055.17372927675,5398171.346470756,71.99560385965037,2.6636179105963294
1317,164055.9927706893,5398170.238583454,72.1865335217785,2.4356190781611247
1318,164061.64611606536,5398162.591504561,73.50440500665673,0.8618804359694678
1319,164061.64611606536,5398162.591504561,73.50440500665673,0.8618804359694678
1320,164062.46515592374,5398161.483617688,73.69533430648588,0.6338816918906502
1321,164063.24751215178,5398160.345611171,73.87771215453273,0.39968444409549875
1322,164068.48442207012,5398152.728055774,75.09850688600218,-1.1679783790848433
1323,164068.48442207012,5398152.728055774,75.09850688600218,-1.1679783790848433
1324,164069.26677681122,5398151.590049784,75.2808843874223,-1.4021755185906812
1325,164070.0723726829,5398150.47067198,75.46867971160509,-1.632539050857531
1326,164092.8290231942,5398118.850152357,80.77356359987138,-8.139917137637738
1327,164092.8290231942,5398118.850152357,80.77356359987138,-8.139917137637738
1328,164093.63461334593,5398117.730776299,80.96135759065615,-8.370280310537396
1329,164094.4418802613,5398116.612833908,81.1495424577879,-8.60034844047128
1330,164110.0075672731,5398095.05662254,84.77811522150256,-13.036531626675426
1331,163779.67062542858,5398429.362953604,7.772093635927789,55.76239131853606
1332,163831.79853572368,5398426.881712179,19.923816549449924,55.251761630196626
1333,163831.79853572368,5398426.881712179,19.923816549449924,55.251761630196626
1334,163833.16926878688,5398426.816462534,20.243353018073833,55.238333510858695
1335,163720.8767395468,5398423.809539652,-5.9335585991258455,54.61952065457345
1336,163739.1042990662,5398426.970093851,-1.6844672502554232,55.26995022938189
1337,163763.40534390658,5398430.150262719,3.9804359031133174,55.92441642572493
1338,163776.92925420258,5398429.494642952,7.133042821250939,55.78949246644035
1339,163776.92925420258,5398429.494642952,7.133042821250939,55.78949246644035
1340,163778.2998917747,5398429.428195297,7.4525570296057,55.775817801267834
1341,163438.9335270529,5398605.030189993,-71.65834549695546,91.91401495610361
1342,163426.58372885725,5398621.65406828,-74.53725095972695,95.33514346924403
1343,163426.58372885725,5398621.65406828,-74.53725095972695,95.33514346924403
1344,163425.76219638024,5398622.7599191405,-74.72876132276691,95.56272320994637
1345,163337.97623067605,5398318.503412182,-95.19286059116989,32.94793541598193
1346,163377.5532060364,5398262.667252652,-85.96693084237302,21.45707425031101
1347,163377.5532060364,5398262.667252652,-85.96693084237302,21.45707425031101
1348,163378.35122525113,5398261.541366979,-85.7809017396859,21.225371424133186
1349,163379.1483902193,5398260.414751135,-85.59507177345623,20.993518331865374
1350,163381.7174100615,5398256.784010045,-84.99619840398942,20.246326151385972
1351,163381.7174100615,5398256.784010045,-84.99619840398942,20.246326151385972
1352,163382.5145742068,5398255.657394469,-84.81036862958463,20.014473114125295
1353,163383.3127781233,5398254.531668146,-84.62429647041313,19.782803081786042
1354,163395.93187254164,5398236.734625311,-81.68261440560215,16.120241936762355
1355,163395.93187254164,5398236.734625311,-81.68261440560215,16.120241936762355
1356,163396.73007318127,5398235.608900037,-81.4965430103108,15.888572120235096
1357,163651.2277692844,5398303.871828737,-22.169678233497578,29.936813314758098
1358,163660.93575263093,5398289.363543529,-19.90661564364082,26.951065504085705
1359,163667.63718597675,5398278.824597678,-18.34442063753258,24.782192060343093
1360,163668.7726447828,5398270.021668141,-18.07972978933732,22.97058391937503
1361,163665.6334351424,5398260.465967024,-18.811522134388042,21.004058359584903
1362,163547.06704549812,5398175.110334898,-46.450955705728845,3.4382062896122676
1363,163531.18662736443,5398163.671610198,-50.15289656272929,1.0841619113749488
1364,163531.18662736443,5398163.671610198,-50.15289656272929,1.0841619113749488
1365,163530.06855925397,5398162.866260006,-50.413533403911664,0.918424021759165
1366,163529.6514384229,5398161.554315694,-50.51076992714428,0.6484310623949341
1367,163528.15386401222,5398156.844086079,-50.859874834248664,-0.320915594270204
1368,163528.82178095696,5398146.612544458,-50.704174335305886,-2.4265264611736512
1369,163532.25042127346,5398138.623961269,-49.90491177403285,-4.070545339132764
1370,163538.7392741679,5398130.321277789,-48.39227215442543,-5.779204816701778
1371,163538.7392741679,5398130.321277789,-48.39227215442543,-5.779204816701778
1372,163539.58637571678,5398129.2373848315,-48.194801293931334,-6.002265707631338
1373,163687.76520630028,5398251.39210677,-13.652306098803393,19.13669374685921
1374,163687.06243712027,5398260.174072772,-13.816131126494255,20.943987675156578
1375,163683.47794951664,5398267.77868918,-14.65172380419159,22.508987705422356
1376,163675.4196218568,5398278.551348503,-16.530229278792632,24.725958458953315
1377,163675.4196218568,5398278.551348503,-16.530229278792632,24.725958458953315
1378,163674.59465415127,5398279.654193564,-16.72254044019222,24.952919618108993
1379,163673.75775088204,5398280.746834358,-16.91763394337525,25.177780779265376
1380,163654.1918034057,5398306.291605009,-21.478721677892835,30.434793717204656
1381,163654.1918034057,5398306.291605009,-21.478721677892835,30.434793717204656
1382,163653.35489530792,5398307.384246966,-21.67381630667829,30.65965511774752
1383,163827.4720636944,5398399.598644459,18.91525723841852,49.63701401892396
1384,163825.97567739867,5398401.569260374,18.56642929702481,50.042558993380595
1385,163825.97567739867,5398401.569260374,18.56642929702481,50.042558993380595
1386,163825.14313350068,5398402.665650936,18.372352022403334,50.26819184203703
1387,163825.04670964857,5398404.040128099,18.349874314655494,50.55105381513556
1388,163823.55126478235,5398425.356965129,18.00126583325175,54.93797470779214
1389,163826.12904467614,5398445.867070149,18.602181289560818,59.15887333791068
1390,163826.12904467614,5398445.867070149,18.602181289560818,59.15887333791068
1391,163826.3008562049,5398447.234087147,18.64223288723838,59.44020003854163
1392,163827.17174133845,5398448.297746216,18.845248023896843,59.659096875176175
1393,163830.1721804958,5398451.962343146,19.54469108717565,60.413256453965914
1394,163830.1721804958,5398451.962343146,19.54469108717565,60.413256453965914
1395,163831.04306651276,5398453.026002406,19.747706429770744,60.63215332989128
1396,163831.40895951597,5398436.468856386,19.83300105151642,57.22475805379432
1397,163781.01754924416,5398438.887557586,8.086079846000487,57.72251721062406
1398,163781.01754924416,5398438.887557586,8.086079846000487,57.72251721062406
1399,163779.64685761335,5398438.9533445705,7.76655303582811,57.73605591232959
1400,163907.79829333193,5398533.654866907,37.64039085143685,77.22525528604444
1401,163885.70093649256,5398517.536200147,32.489197260265996,73.90809731045866
1402,163892.07094947438,5398508.362080854,33.97413368438859,72.02009978345166
1403,163892.07094947438,5398508.362080854,33.97413368438859,72.02009978345166
1404,163892.85877975044,5398507.227443433,34.157787607276305,71.78659588225617
1405,164112.37670956255,5398212.792254008,85.33039442243552,11.192996457724647
1406,164102.4218252097,5398205.224199291,83.00977585922587,9.635520678955032
1407,164102.4218252097,5398205.224199291,83.00977585922587,9.635520678955032
1408,164101.32679015977,5398204.391713947,82.75450833685863,9.464198482123038
1409,164100.25486533332,5398203.532003989,82.5046281210316,9.287273567357545
1410,164099.20058788563,5398202.686447465,82.25886174854878,9.113261373226194
1411,164086.18313624713,5398193.5980118755,79.22431721269902,7.24289721406673
1412,164086.18313624713,5398193.5980118755,79.22431721269902,7.24289721406673
1413,164085.05188060587,5398192.8081982555,78.96060617922146,7.08035668959306
1414,164083.93263457908,5398192.004237026,78.69969474976565,6.914904642950972
1415,164056.29297028822,5398172.150433603,72.25651411996765,2.829070289964534
1416,164056.29297028822,5398172.150433603,72.25651411996765,2.829070289964534
1417,164055.17372927675,5398171.346470756,71.99560385965037,2.6636179105963294
1418,164111.2745525644,5398181.709026881,85.07346667733816,4.796191045025353
1419,164100.30684880377,5398173.796420386,82.51674617305733,3.167807870894407
1420,164100.30684880377,5398173.796420386,82.51674617305733,3.167807870894407
1421,164099.18945593658,5398172.990280624,82.25626674023908,3.00190749076215
1422,164098.36100807367,5398172.395762538,82.06314430695235,2.879558016093256
1423,164098.06981256622,5398172.186792217,81.99526268460852,2.8365527492590417
1424,164098.06981256622,5398172.186792217,81.99526268460852,2.8365527492590417
1425,164097.24136484772,5398171.592274084,81.80214028498648,2.714203264815353
1426,164096.1201738318,5398170.790609153,81.5407754521816,2.549223787387646
1427,164070.38796315712,5398152.391716239,75.5422481315799,-1.2371957274114322
1428,164070.38796315712,5398152.391716239,75.5422481315799,-1.2371957274114322
1429,164069.26677681122,5398151.590049784,75.2808843874223,-1.4021755185906812
1430,164062.16915071392,5398218.505891777,73.62633147728485,12.368840550493545
1431,164057.8074450458,5398224.536529715,72.60955872715252,13.609922026641925
1432,164057.8074450458,5398224.536529715,72.60955872715252,13.609922026641925
1433,164056.99936892575,5398225.653801702,72.421185223435,13.839852190043956
1434,164056.17355358138,5398226.755908768,72.22867646592351,14.066661472569564
1435,164051.74714132719,5398232.663255108,71.19681973294718,15.282370024528518
1436,164051.74714132719,5398232.663255108,71.19681973294718,15.282370024528518
1437,164050.92132472844,5398233.765362505,71.00431068302387,15.509179375285996
1438,164126.8819753524,5398128.90343163,88.71176861655212,-6.070991957962207
1439,164121.6908963652,5398135.962198372,87.50165769675357,-4.618325633513777
1440,164121.6908963652,5398135.962198372,87.50165769675357,-4.618325633513777
1441,164120.8744927431,5398137.072333412,87.31134293935816,-4.389864225530715
1442,164120.04823289826,5398138.174042781,87.11873056275726,-4.163136787496185
1443,164116.4353417332,5398142.991357836,86.2765166296424,-3.1717523700359465
1444,164116.4353417332,5398142.991357836,86.2765166296424,-3.1717523700359465
1445,164115.60908082864,5398144.09306748,86.08390400601115,-2.945024875269297
1446,164149.70604611695,5398156.739955255,94.032369080286,-0.3423453067151456
1447,164140.09339876246,5398150.453645969,91.79153060324248,-1.6360429366747553
1448,164140.09339876246,5398150.453645969,91.79153060324248,-1.6360429366747553
1449,164138.941646099,5398149.700440965,91.52304143588469,-1.7910495525450614
1450,164137.80659157364,5398148.917223746,91.25844483099667,-1.9522325636697104
1451,164137.44996492233,5398148.6711420175,91.17531032156131,-2.0028752117541018
1452,164122.0047868358,5398137.863266411,87.57482982282431,-4.227093337288096
1453,164122.0047868358,5398137.863266411,87.57482982282431,-4.227093337288096
1454,164120.8744927431,5398137.072333412,87.31134293935816,-4.389864225530715
1455,164119.75035575166,5398136.274147226,87.04929135970329,-4.554127791165001
1456,164094.75874581464,5398118.528963996,81.22340811600009,-8.206016434026523
1457,164094.75874581464,5398118.528963996,81.22340811600009,-8.206016434026523
1458,164093.63461334593,5398117.730776299,80.96135759065615,-8.370280310537396
1459,164138.15864826745,5398150.838087673,91.34051402135566,-1.556926351835159
1460,164115.75379616668,5398183.390841407,86.1176391141189,5.14230183397828
1461,164102.10873399235,5398203.253468358,82.93679004993112,9.229952034178595
1462,164102.10873399235,5398203.253468358,82.93679004993112,9.229952034178595
1463,164101.32679015977,5398204.391713947,82.75450833685863,9.464198482123038
1464,164100.51844363147,5398205.508750362,82.56607179730858,9.694080165835146
1465,164076.68750706094,5398238.440105965,77.01075725783195,16.471223121519657
1466,164076.68750706094,5398238.440105965,77.01075725783195,16.471223121519657
1467,164075.87915456435,5398239.557144168,76.82231932699173,16.701105173032133
1468,164075.0815482824,5398240.683369424,76.63638648454122,16.932877883960472
1469,164056.47227800905,5398266.959719759,72.29831318168755,22.34044703240407
1470,164056.47227800905,5398266.959719759,72.29831318168755,22.34044703240407
1471,164055.67466698535,5398268.085946541,72.11237923386597,22.572220057275587
1472,164077.89013037813,5398241.00898072,77.291105064547,16.999887403043815
1473,164076.99625609015,5398240.363642677,77.08273084418002,16.86707938175435
1474,164076.99625609015,5398240.363642677,77.08273084418002,16.86707938175435
1475,164075.87915456435,5398239.557144168,76.82231932699173,16.701105173032133
1476,164074.76663000952,5398238.745254,76.5629747638148,16.534021382132096
1477,164073.75295229026,5398238.005499389,76.32667273869544,16.381782804126388
1478,164058.107543946,5398226.470812992,72.67951585110879,14.007989887654702
1479,164058.107543946,5398226.470812992,72.67951585110879,14.007989887654702
1480,164056.99936892575,5398225.653801702,72.421185223435,13.839852190043956
1481,164055.87801781477,5398224.852312407,72.15978307030278,13.674908857865418
1482,164030.78064853916,5398206.913834292,66.30924589033364,9.983240890766837
1483,164030.78064853916,5398206.913834292,66.30924589033364,9.983240890766837
1484,164029.65930198683,5398206.112343509,66.04784479988444,9.818297252119933
1485,164063.57670943654,5398162.296634289,73.95445250659577,0.8011972984031814
1486,164083.80510230886,5398177.092125207,78.66996524782726,3.8460509101951885
1487,164088.59665721294,5398180.62301381,79.7869416850115,4.572693843211482
1488,164088.59665721294,5398180.62301381,79.7869416850115,4.572693843211482
1489,164089.70503532095,5398181.439775199,80.04531965519467,4.740780112021298
1490,164009.94502083323,5397939.581674552,61.45217847330994,-45.032662039400364
1491,163899.69379648514,5398057.401969408,35.75112271315547,-20.785710564163992
1492,163851.03604705926,5398131.680044562,24.408341364896515,-5.499575979869348
1493,163826.00029357974,5398198.000806943,18.572167662706335,8.148975054703016
1494,163815.4583378016,5398241.016612268,16.114694787668654,17.001457945437863
1495,163815.13551127826,5398243.167407782,16.0394395465036,17.444083169887435
1496,163814.97966399122,5398244.964858702,16.003109430099656,17.813991472216316
1497,163814.99079594034,5398246.854486968,16.005704438422953,18.20286950827554
1498,163817.11699821448,5398320.196942366,16.50135102673282,33.296457240902896
1499,163823.3397577499,5398378.868252556,17.951960675265298,45.370781217988
1500,163825.03912853263,5398401.293199613,18.348107053706926,49.9857467787854
1501,163825.03912853263,5398401.293199613,18.348107053706926,49.9857467787854
1502,163825.14313350068,5398402.665650936,18.372352022403334,50.26819184203703
1503,164173.82648468114,5398194.218394007,99.65517046107072,7.370569407101968
1504,164147.62262323307,5398231.073801006,93.54669494807405,14.955266646321917
1505,164147.62262323307,5398231.073801006,93.54669494807405,14.955266646321917
1506,164146.82306604716,5398232.198355886,93.36030732344744,15.18669560038299
1507,164146.0168552197,5398233.317222955,93.17236864472954,15.416954025313473
1508,164119.83280657258,5398269.655579821,87.06851176436038,22.89524438868466
1509,164119.83280657258,5398269.655579821,87.06851176436038,22.89524438868466
1510,164119.0265891961,5398270.774448876,86.88057155897448,23.12550322243125
1511,164118.23175376005,5398271.903048375,86.69528463828365,23.357764543000954
1512,164115.58015287676,5398275.668097169,86.07716050807176,24.132596718836112
1513,164115.58015287676,5398275.668097169,86.07716050807176,24.132596718836112
1514,164114.78531659677,5398276.796696943,85.8918733906441,24.364858096137937
1515,164113.979904451,5398277.916255822,85.7041208954615,24.595258892963017
1516,164037.6075136295,5398384.076328701,67.90068073735296,46.44258272496532
1517,164029.74835757952,5398392.510652922,66.06860486642324,48.17833334718898
1518,164023.75936897474,5398398.640521798,64.672490392517,49.439836158500526
1519,164014.89833750753,5398405.4002816565,62.6068637731494,50.83096804683473
1520,164008.69784187037,5398410.1935689105,61.161444141270266,51.817407637697016
1521,164001.89622098295,5398414.60278085,59.575894060347395,52.724806045283856
1522,163996.59741322108,5398418.197749637,58.34067010201696,53.46463642721773
1523,163991.19841791756,5398420.993837432,57.08209106885832,54.04006025523606
1524,163982.70474077002,5398425.003613166,55.102099723921754,54.86525626885435
1525,163975.1016195488,5398427.799703016,53.32970904424451,55.44068051987182
1526,163963.50212860815,5398432.193560205,50.62571037921353,56.34491898058812
1527,163955.3980696784,5398434.405852727,48.73654432533428,56.80020004636336
1528,163945.90251711366,5398436.694961518,46.523002231966615,57.271289597226655
1529,163930.39571204604,5398438.292729062,42.90815564807323,57.60010384909117
1530,163907.19673016475,5398439.798317963,37.500158318018094,57.90994810023949
1531,163885.4733114219,5398439.047003736,32.43613476895919,57.75533059874408
1532,163885.4733114219,5398439.047003736,32.43613476895919,57.75533059874408
1533,163884.097935825,5398438.999434027,32.11551606276399,57.745540940478804
