run_id,seed,demand_factor,mode,origin_zone,destination_zone,flow_slot,scheduled_spawn_time_s,arrival_time_s,trajectory_duration_min,average_speed_kmh,trajectory_distance_km,congestion_duration_min,low_speed_duration_min,intermediate_speed_duration_min,high_speed_duration_min,copresence_car_percentage,copresence_bike_percentage,copresence_pedestrian_percentage
19,21092034,2,car,7.3,7.1,38,6.433,65.4,0.98,16.760233,0.27375,0,0,0.98,0,0,0,0
19,21092034,2,car,7.1,7.3,38,1.906,77.2,1.253333,17.252107,0.360377,0,0,1.253333,0,0,0,0
19,21092034,2,pedestrian,7.6,7.5,38,7.642,78.8,1.183333,5.55344,0.109526,0,0,0,1.183333,0,0,0
19,21092034,2,bike,7.1,7.6,38,15.876,82.4,1.106667,12.036515,0.222007,0,0.473333,0.003333,0.63,0,0,0
19,21092034,2,bike,7.6,7.1,38,32.165,98.8,1.11,12.000369,0.222007,0,0.473333,0,0.636667,0,0,2.102102
19,21092034,2,bike,7.1,7.6,38,21.169,100.2,1.316667,10.116767,0.222007,0,0.563333,0.003333,0.75,0,0,0
19,21092034,2,bike,7.1,7.6,38,22.266,101,1.31,10.168252,0.222007,0.026667,0.55,0.023333,0.71,0,0,0
19,21092034,2,car,7.1,7.3,38,21.693,105.2,1.39,15.555854,0.360377,0,0,1.39,0,0,0,0.719424
19,21092034,2,car,7.1,7.3,38,26.967,105.8,1.313333,16.463939,0.360377,0.01,0.24,1.063333,0,0,0,0.761421
19,21092034,2,bike,7.1,7.6,38,53.914,118.2,1.07,12.448981,0.222007,0,0.46,0,0.61,0,0,0
19,21092034,2,car,7.1,7.3,38,33.458,126.2,1.543333,14.010341,0.360377,0,1.543333,0,0,0,0,0
19,21092034,2,car,7.1,7.3,38,40.785,126.6,1.43,15.120728,0.360377,0.11,0.333333,0.986667,0,0,0,0
19,21092034,2,pedestrian,7.5,7.6,38,45.384,132.2,1.446667,4.542164,0.109517,0.15,0,0.013333,1.283333,0,0,0
19,21092034,2,car,7.3,7.1,38,88.488,143.8,0.92,17.853292,0.27375,0,0,0.92,0,0,0,0
19,21092034,2,bike,7.6,7.1,38,41.194,145,1.73,7.699659,0.222007,0,0.74,0.99,0,0,0,2.890173
19,21092034,2,car,7.1,7.3,38,79.613,149,1.153333,18.747954,0.360377,0,0,1.153333,0,0,0,0
19,21092034,2,pedestrian,7.6,7.5,38,33.436,152,1.973333,3.330188,0.109526,0,0,1.973333,0,0,0,0
19,21092034,2,car,7.1,7.6,38,81.671,152.8,1.183333,19.084885,0.376396,0,0,1.183333,0,0,0,1.408451
19,21092034,2,pedestrian,7.6,7.5,38,67.263,153.6,1.436667,4.574179,0.109526,0.176667,0.003333,0.326667,0.93,0,0,0
19,21092034,2,car,7.1,7.6,38,83.98,161.6,1.293333,17.461686,0.376396,0.02,0.103333,1.17,0,0,0,0
19,21092034,2,car,7.1,7.3,38,83.576,166.8,1.386667,15.59325,0.360377,0,0,1.386667,0,0,0,0
19,21092034,2,car,7.1,7.3,38,101.55,167,1.09,19.837285,0.360377,0.086667,0.173333,0.83,0,0,0,0
19,21092034,2,car,7.1,7.3,38,99.137,167.6,1.14,18.967226,0.360377,0.046667,0.09,1.003333,0,0,0,0
19,21092034,2,bike,7.1,7.6,38,77.764,168,1.503333,8.860576,0.222007,0,0.643333,0.86,0,0,0,0
19,21092034,2,car,7.3,7.1,38,114.992,172,0.95,17.289503,0.27375,0,0,0.95,0,0,0,0
19,21092034,2,pedestrian,7.3,7.5,38,43.446,196.6,2.55,6.742169,0.286542,0,0,0,2.55,0.522876,0,0
19,21092034,2,pedestrian,7.3,7.6,38,59.982,206,2.433333,4.364778,0.177016,0,0,0,2.433333,0,0,0
19,21092034,2,pedestrian,7.5,7.6,38,147.539,213.4,1.096667,5.992314,0.109526,0,0,0,1.096667,0,0,0
19,21092034,2,car,7.1,7.3,38,128.882,219.6,1.51,14.319593,0.360376,0,1.51,0,0,0,0,0.883002
19,21092034,2,car,7.1,7.3,38,135.32,220.2,1.413333,15.299038,0.360377,0.096667,0.326667,0.99,0,0,0,0.943396
19,21092034,2,pedestrian,7.6,7.5,38,146.186,221,1.246667,5.271313,0.109526,0,0,0,1.246667,0,0,0
19,21092034,2,pedestrian,7.5,7.6,38,160.85,229,1.133333,5.798445,0.109526,0,0,0,1.133333,0,0,0
19,21092034,2,pedestrian,7.6,7.5,38,152.503,229.2,1.276667,5.147444,0.109526,0,0,0,1.276667,0,0,0
19,21092034,2,bike,7.6,7.1,38,128.257,229.6,1.686667,7.897476,0.222007,0,0.723333,0.963333,0,0,0,2.964427
19,21092034,2,car,7.3,7.1,38,182.799,234.6,0.863333,19.02513,0.27375,0,0,0.863333,0,0,0,0
19,21092034,2,bike,7.6,7.1,38,158.741,236.6,1.296667,10.272808,0.222007,0,0.553333,0.003333,0.74,0,0,0
19,21092034,2,bike,7.1,7.6,38,138.841,237.4,1.64,8.122198,0.222007,0,0.703333,0.936667,0,0,0,2.642276
19,21092034,2,bike,7.1,7.6,38,158.566,238.2,1.326667,10.04051,0.222007,0.113333,0.503333,0.216667,0.493333,0,0,2.261307
19,21092034,2,bike,7.5,7.1,38,135.486,245.6,1.833333,13.988718,0.427433,0,0.47,0.003333,1.36,0,0,1.454545
19,21092034,2,pedestrian,7.5,7.4,38,36.424,248.4,3.53,5.303692,0.312034,0.356667,0.01,0.006667,3.156667,1.510859,0,0
19,21092034,2,bike,7.1,7.6,38,186.193,252,1.096667,12.14627,0.222007,0,0.47,0,0.626667,0,0,1.823708
19,21092034,2,pedestrian,7.3,7.5,38,45.414,263,3.623333,4.744948,0.286542,0,0,0,3.623333,0,0,0
19,21092034,2,pedestrian,7.6,7.5,38,199.203,264.6,1.086667,6.047458,0.109526,0.016667,0,0.003333,1.066667,0,0,0
19,21092034,2,pedestrian,7.4,7.3,38,224.068,269.2,0.75,5.877897,0.073474,0,0,0,0.75,0,0,0
19,21092034,2,bike,7.5,7.1,38,169.31,270.2,1.68,15.265466,0.427433,0,0.43,0.003333,1.246667,0,0,0.595238
19,21092034,2,pedestrian,7.1,7.6,38,82.73,274.8,3.2,5.420673,0.289103,0.206667,0,0.01,2.983333,0.104167,5.625,0
19,21092034,2,pedestrian,7.5,7.3,38,94.251,282,3.126667,5.498677,0.286542,0.03,0,0,3.096667,0,0,0
19,21092034,2,pedestrian,7.3,7.4,38,176.646,283.2,1.773333,4.181277,0.12358,0,0,0,1.773333,0,0,0
19,21092034,2,pedestrian,7.6,7.5,38,207.292,287.2,1.33,4.941031,0.109526,0,0,0,1.33,0,0,0
19,21092034,2,pedestrian,7.5,7.4,38,45.058,288,4.046667,4.626532,0.312034,0.076667,0.003333,0.006667,3.96,1.153213,0,0
19,21092034,2,car,7.1,7.3,38,191.82,290,1.633333,13.238351,0.360377,0,1.633333,0,0,0,0,1.020408
19,21092034,2,car,7.1,7.3,38,218.897,290.4,1.19,18.170259,0.360377,0.06,0.133333,0.996667,0,0,0,0.280112
19,21092034,2,bike,7.1,7.5,38,160.666,295,2.236667,11.466162,0.427433,0,0.576667,1.66,0,0,0,2.384501
19,21092034,2,car,7.6,7.5,38,280.385,311,0.51,20.701518,0.175963,0,0,0.51,0,0,0,1.960784
19,21092034,2,pedestrian,7.6,7.4,38,138.706,313,2.903333,4.185004,0.202508,0,0,0,2.903333,0.918485,0,0
19,21092034,2,pedestrian,7.3,7.5,38,68.625,316.2,4.123333,4.169571,0.286542,0,0,0,4.123333,0,0,0
19,21092034,2,car,7.5,7.3,38,211.059,317.2,1.766667,19.354076,0.56987,0,0,1.766667,0,0,0,0
19,21092034,2,bike,7.6,7.1,38,243.707,321.8,1.3,10.246469,0.222007,0,0.556667,0,0.743333,0,0,3.846154
19,21092034,2,pedestrian,7.6,7.5,38,233.242,325.4,1.533333,4.285807,0.109526,0,0,0,1.533333,0,0,0
19,21092034,2,bike,7.1,7.6,38,261.352,333,1.193333,11.162355,0.222007,0,0.51,0.003333,0.68,0,0,0
19,21092034,2,car,7.1,7.3,38,261.712,333.4,1.193333,18.119508,0.360377,0,0,1.193333,0,0,0,0
19,21092034,2,car,7.1,7.3,38,262.668,333.8,1.183333,18.272654,0.360377,0.01,0.173333,1,0,0,0,0
19,21092034,2,bike,7.1,7.6,38,269.734,337,1.12,11.893185,0.222006,0,0.48,0,0.64,0,0,0
19,21092034,2,pedestrian,7.3,7.5,38,130.642,337.6,3.446667,4.988162,0.286542,0.006667,0,0,3.44,0,0,0
19,21092034,2,pedestrian,7.5,7.4,38,117.523,340.6,3.716667,5.037304,0.312033,0,0,0,3.716667,0.896861,0,0
19,21092034,2,car,7.1,7.6,38,275.436,354,1.306667,17.283504,0.376396,0,0,1.306667,0,0,0,0
19,21092034,2,pedestrian,7.3,7.5,38,135.879,355,3.65,4.710282,0.286542,0,0,0,3.65,0,0,0
19,21092034,2,pedestrian,7.1,7.5,38,60.349,357,4.943333,4.838442,0.398634,0.036667,0.003333,0.006667,4.896667,0,3.910991,0
19,21092034,2,pedestrian,7.6,7.5,38,275.895,358.8,1.38,4.762008,0.109526,0.11,0.003333,0.01,1.256667,0,0,0
19,21092034,2,pedestrian,7.1,7.4,38,86.687,367.6,4.68,4.921348,0.383865,0,0,0,4.68,1.210826,0,0
19,21092034,2,pedestrian,7.5,7.1,38,7.882,375.2,6.12,5.18043,0.528404,0,0,0,6.12,0.381264,2.015251,0
19,21092034,2,car,7.3,7.1,38,302.466,376.4,1.23,13.353682,0.27375,0,1.23,0,0,0,0,0
19,21092034,2,car,7.1,7.6,38,281.26,379.6,1.636667,13.798644,0.376396,0,1.636667,0,0,0,0,0
19,21092034,2,bike,7.1,7.6,38,309.398,381.4,1.2,11.100342,0.222007,0,0.513333,0.003333,0.683333,1.111111,0,7.222222
19,21092034,2,bike,7.1,7.6,38,313.578,386,1.206667,11.039014,0.222007,0,0.516667,0.003333,0.686667,0,0,8.563536
19,21092034,2,car,7.1,7.3,38,302.487,387.8,1.42,15.227211,0.360377,0,0,1.42,0,0,0,0
19,21092034,2,car,7.1,7.3,38,310.882,388.2,1.286667,16.805161,0.360377,0.116667,0.243333,0.926667,0,0,0,0
19,21092034,2,car,7.3,7.1,38,325.466,392.6,1.116667,14.708981,0.27375,0,1.116667,0,0,0,0,1.19403
19,21092034,2,car,7.1,7.3,38,315.197,397.8,1.376667,15.706518,0.360377,0,0,1.376667,0,0,0,1.694915
19,21092034,2,bike,7.1,7.6,38,337.753,401.4,1.06,12.566424,0.222007,0,0.453333,0.003333,0.603333,0,0,9.433962
19,21092034,2,bike,7.1,7.6,38,342.911,413.8,1.18,11.288483,0.222007,0,0.506667,0,0.673333,1.694915,0,8.474576
19,21092034,2,pedestrian,7.5,7.3,38,221.562,421.4,3.33,5.162922,0.286542,0,0,0,3.33,0,0,0
19,21092034,2,car,7.1,7.6,38,349.481,425,1.256667,17.971178,0.376396,0,0,1.256667,0,0,0,0.795756
19,21092034,2,pedestrian,7.5,7.4,38,206.407,425.4,3.646667,5.134013,0.312034,0,0,0,3.646667,0,0,0
19,21092034,2,pedestrian,7.5,7.4,38,207.824,427,3.65,5.129324,0.312034,0.196667,0.013333,0.01,3.43,0.091324,0,0
19,21092034,2,pedestrian,7.3,7.5,38,232.444,427,3.24,5.306333,0.286542,0,0,0,3.24,1.54321,0,0
19,21092034,2,car,7.3,7.1,38,364.721,428.2,1.056667,15.544191,0.27375,0.01,0.003333,1.043333,0,0,0,0
19,21092034,2,pedestrian,7.3,7.1,38,10.66,435.4,7.076667,4.117951,0.485689,0,0,0,7.076667,1.365992,0,0
19,21092034,2,pedestrian,7.3,7.1,38,129.439,439.6,5.166667,5.64007,0.485673,0,0,0,5.166667,0.709677,0,0
19,21092034,2,pedestrian,7.5,7.6,38,367.857,440.6,1.21,5.43105,0.109526,0,0,0,1.21,0,0,0
19,21092034,2,car,7.3,7.1,38,379.727,442,1.036667,15.844079,0.27375,0,0,1.036667,0,0,0,0
19,21092034,2,car,7.6,7.3,38,356.91,442.4,1.423333,18.728259,0.444276,0.006667,0,1.416667,0,0,0.234192,2.34192
19,21092034,2,car,7.1,7.6,38,370.721,446.2,1.256667,17.971174,0.376396,0,0,1.256667,0,0,0,2.122016
19,21092034,2,car,7.1,7.6,38,371.089,446.8,1.26,17.923636,0.376396,0.09,0.32,0.85,0,0,0,3.703704
19,21092034,2,car,7.5,7.1,38,362.582,452.4,1.496667,16.84008,0.420066,0,0,1.496667,0,0,0.890869,0
19,21092034,2,pedestrian,7.6,7.3,38,337.044,453.4,1.936667,5.484144,0.177016,0.04,0,0.003333,1.893333,0,0,0
19,21092034,2,pedestrian,7.1,7.3,38,194.665,462.8,4.466667,4.813961,0.358373,0.02,0,0.003333,4.443333,2.835821,1.940299,0
19,21092034,2,pedestrian,7.1,7.3,38,218.032,466.6,4.14,5.193804,0.358372,0,0,0,4.14,2.415459,0.563607,0
19,21092034,2,car,7.1,7.6,38,404.663,468.6,1.063333,21.238665,0.376396,0,0,1.063333,0,0,0,0
19,21092034,2,pedestrian,7.5,7.3,38,262.489,469.8,3.453333,4.978532,0.286542,0.02,0.003333,0.003333,3.426667,1.158301,0,0
19,21092034,2,pedestrian,7.6,7.4,38,323.793,477.4,2.56,4.746274,0.202508,0,0,0,2.56,1.953125,0,0
19,21092034,2,car,7.3,7.1,38,411.947,480.6,1.143333,14.365914,0.27375,0,1.143333,0,0,0,0,0
19,21092034,2,car,7.3,7.1,38,419.455,481,1.023333,16.050517,0.27375,0.106667,0.26,0.656667,0,0,0,0
19,21092034,2,pedestrian,7.5,7.6,38,394.139,483,1.48,4.440251,0.109526,0,0,0,1.48,0,0,0
19,21092034,2,pedestrian,7.5,7.3,38,279.737,488,3.47,4.95462,0.286542,0.223333,0,0.01,3.236667,1.248799,0,0
19,21092034,2,pedestrian,7.1,7.6,38,255.163,491.6,3.94,4.402637,0.289107,0,0,0,3.94,0.253807,3.299492,0
19,21092034,2,pedestrian,7.4,7.5,38,242.74,494.8,4.2,4.881473,0.341703,0,0,0,4.2,0.47619,0,0
19,21092034,2,pedestrian,7.4,7.3,38,451.18,495.8,0.743333,5.930613,0.073474,0,0,0,0.743333,0,0,0
19,21092034,2,bike,7.6,7.1,38,410.109,498.6,1.473333,9.040982,0.222006,0,0.63,0.843333,0,0,0,1.58371
19,21092034,2,car,7.3,7.6,38,364.632,499.2,2.24,15.956189,0.595698,0,0,2.24,0,0,0,0.595238
19,21092034,2,pedestrian,7.6,7.5,38,427.662,501.2,1.223333,5.371853,0.109526,0,0,0,1.223333,0,0,0
19,21092034,2,pedestrian,7.5,7.4,38,270.859,512,4.016667,4.661065,0.312032,0,0,0,4.016667,1.161826,0,0
19,21092034,2,pedestrian,7.5,7.6,38,424.67,516,1.52,4.323402,0.109526,0.08,0,0.006667,1.433333,0,0,0
19,21092034,2,pedestrian,7.6,7.1,38,116.801,525.4,6.806667,3.692437,0.418886,0,0,6.806667,0,0,4.162586,0
19,21092034,2,pedestrian,7.5,7.1,38,35.429,527.6,8.2,3.866435,0.528413,0.47,0.043333,2.16,5.526667,0.325203,3.373984,0
19,21092034,2,pedestrian,7.3,7.1,38,142.422,529.6,6.45,4.518043,0.48569,0.203333,0.016667,0.006667,6.223333,0.620155,0.103359,0
19,21092034,2,pedestrian,7.6,7.5,38,444.803,529.6,1.41,4.660687,0.109526,0,0,0,1.41,0,0,0
19,21092034,2,pedestrian,7.5,7.1,38,147.673,531.2,6.39,4.961622,0.528413,0.963333,0.016667,0.02,5.39,0.365154,2.869066,0
19,21092034,2,pedestrian,7.5,7.1,38,66.145,534.6,7.806667,4.061242,0.528413,0.22,0.006667,0.013333,7.566667,0,3.287788,0
19,21092034,2,car,7.1,7.6,38,460.265,535,1.243333,18.163899,0.376396,0,0,1.243333,0,0,0,0
19,21092034,2,pedestrian,7.5,7.1,38,134.445,536,6.69,4.739128,0.528413,1.206667,0.03,0.036667,5.416667,0,3.986049,0
19,21092034,2,pedestrian,7.5,7.3,38,329.076,551,3.696667,4.650819,0.286542,0.233333,0.01,0.006667,3.446667,0,0,0
19,21092034,2,car,7.1,7.3,38,450.458,553.4,1.713333,12.620213,0.360377,0,1.713333,0,0,0,0,1.55642
19,21092034,2,pedestrian,7.5,7.6,38,474.805,558.2,1.386667,4.739114,0.109526,0,0,0,1.386667,0,0,0
19,21092034,2,car,7.1,7.3,38,491.654,560.2,1.14,18.967228,0.360377,0,0,1.14,0,0,0,0
19,21092034,2,pedestrian,7.6,7.3,38,413.006,560.6,2.456667,4.323321,0.177016,0.016667,0,0,2.44,0.814111,0,0
19,21092034,2,car,7.1,7.6,38,482.687,561.4,1.31,17.239527,0.376396,0,0,1.31,0,0,0,0
19,21092034,2,car,7.1,7.3,38,491.853,568,1.266667,17.070506,0.360377,0.006667,0.003333,1.256667,0,0,0,0
19,21092034,2,pedestrian,7.6,7.1,38,216.747,568.8,5.866667,4.284066,0.418886,0,0,0,5.866667,0,1.079545,0
19,21092034,2,pedestrian,7.5,7.1,38,150.283,570.6,7.003333,4.527096,0.528413,0.5,0.043333,0.046667,6.413333,0,1.332699,0
19,21092034,2,car,7.1,7.6,38,496.943,576.8,1.33,16.980286,0.376396,0,0,1.33,0,0,0,0
19,21092034,2,pedestrian,7.6,7.4,38,389.517,578.2,3.143333,3.865469,0.202508,0,0,3.143333,0,1.378579,0,0
19,21092034,2,pedestrian,7.3,7.5,38,283.02,580.4,4.953333,3.470901,0.286542,0,0,4.953333,0,0,0,0
19,21092034,2,pedestrian,7.5,7.4,38,304.904,580.4,4.59,4.078874,0.312034,0.243333,0.01,1.293333,3.043333,1.234568,0,0
19,21092034,2,pedestrian,7.3,7.5,38,338.16,582,4.063333,4.23114,0.286542,0.656667,0.033333,1.113333,2.26,0,0,0
19,21092034,2,pedestrian,7.5,7.4,38,318.722,582.6,4.396667,4.258233,0.312034,0.086667,0.003333,0,4.306667,0,0,0
19,21092034,2,pedestrian,7.4,7.5,38,340.89,583.8,4.046667,5.066438,0.341703,0.33,0.006667,0.003333,3.706667,0.823723,0,0
19,21092034,2,pedestrian,7.5,7.4,38,333.585,584.6,4.183333,4.475386,0.312034,0.096667,0.003333,0,4.083333,1.434263,0,0
19,21092034,2,pedestrian,7.6,7.5,38,485.96,585.8,1.663333,3.950844,0.109526,0.43,0.003333,0.003333,1.226667,0,0,0
19,21092034,2,pedestrian,7.6,7.5,38,485.917,587.2,1.686667,3.896171,0.109526,0.55,0.003333,0.003333,1.13,0,0,0
19,21092034,2,pedestrian,7.3,7.4,38,511.493,587.8,1.27,5.838424,0.12358,0,0,0,1.27,0,0,0
19,21092034,2,pedestrian,7.1,7.5,38,289.01,589.4,5.003333,4.780419,0.398634,0.146667,0.006667,0.003333,4.846667,0.466356,1.665556,0
19,21092034,2,pedestrian,7.3,7.5,38,384.244,591.4,3.45,4.983342,0.286542,0.043333,0,0.006667,3.4,0,0,0
19,21092034,2,pedestrian,7.5,7.1,38,223.708,605.8,6.366667,4.979798,0.528412,0,0,0,6.366667,0.209424,0.575916,0
19,21092034,2,car,7.1,7.3,38,533.422,605.8,1.203333,17.968953,0.360377,0,0,1.203333,0,0,0,0
19,21092034,2,pedestrian,7.3,7.4,38,532.692,607.4,1.243333,5.963645,0.12358,0,0,0,1.243333,0,0,0
19,21092034,2,pedestrian,7.1,7.3,38,335.534,618.6,4.716667,4.558814,0.358373,0,0,0,4.716667,3.038869,0,0
19,21092034,2,car,7.1,7.5,38,547.717,619.4,1.193333,20.291403,0.403573,0,0,1.193333,0,0,0,0
19,21092034,2,car,7.1,7.3,38,559.232,625.4,1.1,19.656946,0.360377,0,0,1.1,0,0,0,0
19,21092034,2,car,7.1,7.3,38,561.878,629.8,1.13,19.135079,0.360377,0,0,1.13,0,0,0,0
19,21092034,2,pedestrian,7.6,7.4,38,464.379,630.8,2.773333,4.381176,0.202508,0,0,0,2.773333,0.721154,0,0
19,21092034,2,pedestrian,7.5,7.6,38,539.395,635.6,1.603333,4.098692,0.109526,0.186667,0.003333,0.45,0.963333,0,0,0
19,21092034,2,pedestrian,7.1,7.5,38,342.773,647.6,5.08,4.708274,0.398634,0,0,0,5.08,0.328084,0.262467,0
19,21092034,2,pedestrian,7.1,7.5,38,370.559,649.4,4.646667,5.147325,0.398632,0.106667,0.003333,0.01,4.526667,0.645624,0.35868,0
19,21092034,2,pedestrian,7.5,7.3,38,424.055,660,3.93,4.37469,0.286542,0,0,0,3.93,0.424088,0,0
19,21092034,2,pedestrian,7.5,7.3,38,449.258,662,3.543333,4.852078,0.286542,0.02,0,0,3.523333,0.470367,0,0
19,21092034,2,bike,7.1,7.6,38,555.853,665,1.816667,7.332336,0.222007,0,0.78,1.036667,0,0,0,6.055046
19,21092034,2,bike,7.1,7.6,38,578.046,665.6,1.456667,9.144446,0.222007,0.133333,0.546667,0.25,0.526667,0,0,4.118993
19,21092034,2,pedestrian,7.4,7.5,38,382.966,671.6,4.81,4.262408,0.341703,0,0,0,4.81,0.554401,0,0
19,21092034,2,pedestrian,7.4,7.5,38,396.242,672.8,4.606667,4.450547,0.341703,0.973333,0.01,0.02,3.603333,0.361795,0,0
19,21092034,2,pedestrian,7.5,7.4,38,428.245,673.4,4.083333,4.584977,0.312033,0.276667,0.02,0,3.786667,0,0,0
19,21092034,2,pedestrian,7.4,7.5,38,402.723,674.8,4.533333,4.522536,0.341703,0.9,0.02,0.01,3.603333,0,0,0
19,21092034,2,pedestrian,7.5,7.6,38,601.04,676.8,1.26,5.215532,0.109526,0,0,0,1.26,0,0,0
19,21092034,2,car,7.3,7.1,38,606.924,684.4,1.29,12.73258,0.27375,0,1.29,0,0,0,0,0
19,21092034,2,bike,7.6,7.1,38,577.516,685,1.79,7.441563,0.222007,0,0.766667,1.023333,0,0,0,6.145251
19,21092034,2,car,7.1,7.3,38,611.371,690,1.31,16.505808,0.360377,0,0,1.31,0,0,0,0
19,21092034,2,pedestrian,7.6,7.5,38,601.15,697.2,1.6,4.107232,0.109526,0,0,0,1.6,0,0,0
19,21092034,2,pedestrian,7.1,7.5,38,394.645,699.2,5.073333,4.714459,0.398634,0.126667,0.003333,0.003333,4.94,0,0.197109,0
19,21092034,2,pedestrian,7.1,7.5,38,408.265,701,4.876667,4.904585,0.398634,0.3,0.016667,0.01,4.55,0,0.75188,0
19,21092034,2,pedestrian,7.6,7.5,38,616.062,703,1.446667,4.54256,0.109526,0.183333,0.003333,0.006667,1.253333,0,0,0
19,21092034,2,pedestrian,7.5,7.4,38,452.466,704.8,4.203333,4.454092,0.312034,0,0,0,4.203333,0,0,0
19,21092034,2,pedestrian,7.5,7.4,38,477.827,706.6,3.81,4.913919,0.312034,0.32,0.013333,0.016667,3.46,0,0,0
19,21092034,2,pedestrian,7.6,7.5,38,629.378,706.6,1.286667,5.107429,0.109526,0,0,0,1.286667,0,0,0
19,21092034,2,bike,7.1,7.6,38,642.748,709.4,1.11,12.000312,0.222006,0,0.476667,0,0.633333,0,0,4.204204
19,21092034,2,pedestrian,7.5,7.3,38,478.215,724.4,4.1,4.1933,0.286542,0.02,0,0,4.08,0,0,0
19,21092034,2,pedestrian,7.6,7.4,38,590.988,736.4,2.423333,5.013946,0.202508,0.03,0.003333,0,2.39,0,0,0
19,21092034,2,pedestrian,7.5,7.6,38,680.954,748.6,1.126667,5.832755,0.109526,0,0,0,1.126667,0,0,0
19,21092034,2,pedestrian,7.3,7.5,38,601.098,758.8,2.626667,6.54538,0.286542,0,0,0,2.626667,0,0,0
19,21092034,2,car,7.1,7.3,38,689.778,767,1.286667,16.805097,0.360376,0,0,1.286667,0,0,0,0
19,21092034,2,car,7.3,7.1,38,707.048,772.8,1.093333,15.022892,0.27375,0.11,0.233333,0.75,0,0,0,0
19,21092034,2,pedestrian,7.6,7.4,38,597.353,773.4,2.933333,4.142203,0.202508,0,0,0,2.933333,0,0,0
19,21092034,2,car,7.3,7.1,38,699.79,774,1.236667,13.281694,0.27375,0.136667,0.386667,0.713333,0,0,0,0
19,21092034,2,pedestrian,7.1,7.4,38,478.59,775.4,4.946667,4.656046,0.383865,0.063333,0.006667,0,4.876667,0,0,0
19,21092034,2,pedestrian,7.1,7.4,38,507.731,781,4.553333,5.058252,0.383865,0,0,0,4.553333,1.610542,0,0
19,21092034,2,pedestrian,7.1,7.4,38,508.812,784.6,4.593333,5.014201,0.383865,0.013333,0,0,4.58,1.523948,0,0
19,21092034,2,pedestrian,7.6,7.1,38,397.505,791.2,6.56,3.83128,0.418887,0,0,6.56,0,0.609756,1.371951,0
19,21092034,2,bike,7.1,7.6,38,718.245,791.4,1.216667,10.948282,0.222007,0,0.52,0.003333,0.693333,0,0,0
19,21092034,2,pedestrian,7.5,7.1,38,345.714,792.6,7.446667,4.257577,0.528413,1.643333,0.03,1.56,4.213333,0.671441,1.253357,0
19,21092034,2,pedestrian,7.5,7.1,38,349.872,795,7.416667,4.274798,0.528413,1.123333,0.03,0.51,5.753333,0.449438,1.213483,0
19,21092034,2,bike,7.6,7.1,38,720.977,795.6,1.243333,10.713466,0.222007,0,0.53,0.003333,0.71,0,0,3.485255
19,21092034,2,pedestrian,7.5,7.1,38,436.283,796.6,6.003333,5.281194,0.528413,0.303333,0,0.01,5.69,0,3.997779,0
19,21092034,2,car,7.1,7.3,38,724.876,796.8,1.196667,18.069059,0.360377,0,0,1.196667,0,0,0,0.835655
19,21092034,2,car,7.1,7.3,38,728.036,797.8,1.16,18.640207,0.360377,0,0,1.16,0,0,0,2.011494
19,21092034,2,pedestrian,7.5,7.3,38,515.286,815.2,4.996667,3.4408,0.286542,0,0,4.996667,0,0,0,0
19,21092034,2,car,7.1,7.3,38,737.374,816,1.31,16.505832,0.360377,0,0,1.31,0,0,0,0
19,21092034,2,pedestrian,7.5,7.3,38,518.28,817.8,4.99,3.445397,0.286542,0.306667,0.013333,4.67,0,0,0,0
19,21092034,2,pedestrian,7.5,7.4,38,540.957,819.2,4.636667,4.037822,0.312034,1.013333,0.01,0.083333,3.53,0,0,0
19,21092034,2,car,7.1,7.6,38,750.113,820,1.163333,19.412992,0.376396,0,0,1.163333,0,0,0,0
19,21092034,2,pedestrian,7.5,7.4,38,545.984,821,4.583333,4.084736,0.312028,0.993333,0.01,0.013333,3.566667,0,0,0
19,21092034,2,pedestrian,7.5,7.3,38,518.682,821.8,5.05,3.404461,0.286542,0.54,0.02,4.49,0,0,0,0
19,21092034,2,car,7.5,7.1,38,731.641,821.8,1.5,16.802658,0.420066,0,0,1.5,0,0,0,1.777778
19,21092034,2,pedestrian,7.5,7.4,38,539.348,822.8,4.723333,3.963733,0.312034,1.176667,0.01,0.82,2.716667,0,0,0
19,21092034,2,bike,7.1,7.6,38,750.623,823.2,1.206667,11.039014,0.222007,0,0.516667,0.003333,0.686667,0,0,0
19,21092034,2,pedestrian,7.5,7.3,38,571.527,823.2,4.193333,4.099968,0.286542,0.873333,0.01,1.07,2.24,0,0,0
19,21092034,2,pedestrian,7.5,7.3,38,607.255,825.2,3.63,4.736234,0.286542,0.47,0,0.006667,3.153333,0,0,0
19,21092034,2,pedestrian,7.5,7.4,38,592.159,829.2,3.95,4.739755,0.312034,0.44,0.003333,0,3.506667,0,0,0
19,21092034,2,pedestrian,7.5,7.3,38,655.055,841,3.096667,5.551947,0.286542,0.226667,0.01,0,2.86,0,0,0
19,21092034,2,pedestrian,7.1,7.5,38,497.039,844.8,5.793333,4.128524,0.398632,0,0,0,5.793333,0,1.265823,0
19,21092034,2,pedestrian,7.1,7.5,38,536.177,846.6,5.173333,4.623331,0.398634,0.42,0.006667,0.02,4.726667,0,12.628866,0
19,21092034,2,pedestrian,7.6,7.5,38,751.491,849.4,1.63,4.031639,0.109526,0.036667,0.006667,0.003333,1.583333,0,0,0
19,21092034,2,pedestrian,7.1,7.3,38,563.281,856.2,4.88,4.406231,0.358373,0,0,0,4.88,1.571038,0,0
19,21092034,2,pedestrian,7.5,7.3,38,677.273,858,3.01,5.711804,0.286542,0.04,0,0,2.97,0.996678,0,0
19,21092034,2,bike,7.6,7.1,38,776.758,858.8,1.366667,9.746641,0.222007,0,0.583333,0.783333,0,0.97561,0,2.195122
19,21092034,2,pedestrian,7.5,7.4,38,641.136,861.8,3.676667,5.092121,0.312034,0,0,0,3.676667,0,0,0
19,21092034,2,car,7.3,7.6,38,699.706,863.6,2.73,13.09225,0.595697,0,2.73,0,0,0,0,0.610501
19,21092034,2,pedestrian,7.5,7.4,38,647.714,863.6,3.596667,5.205385,0.312034,0.116667,0.006667,0,3.473333,0,0,0
19,21092034,2,car,7.3,7.6,38,728.712,864.2,2.256667,15.838344,0.595698,0.196667,0.46,1.6,0,0,0,1.033973
19,21092034,2,car,7.1,7.3,38,803.044,866.8,1.06,20.398717,0.360377,0,0,1.06,0,0,0,1.886792
19,21092034,2,pedestrian,7.1,7.3,38,606.397,866.8,4.34,4.954471,0.358373,0,0,0,4.34,1.689708,0.15361,0
19,21092034,2,pedestrian,7.5,7.6,38,776.169,870.2,1.566667,4.19462,0.109526,0,0,0,1.566667,0,0,0
19,21092034,2,pedestrian,7.4,7.3,38,809.089,877.6,1.14,3.867037,0.073474,0.03,0,1.11,0,0,0,0
19,21092034,2,pedestrian,7.1,7.5,38,576.013,880.6,5.073333,4.714426,0.398631,0,0,0,5.073333,0,1.182654,0
19,21092034,2,pedestrian,7.6,7.5,38,808.329,883.6,1.253333,5.243275,0.109526,0,0,0,1.253333,0,0,0
19,21092034,2,pedestrian,7.3,7.4,38,781.81,884.8,1.713333,4.327703,0.12358,0,0,0,1.713333,0,0,0
19,21092034,2,bike,7.1,7.5,38,767.119,889.2,2.033333,12.612778,0.427433,0.08,0.593333,0.066667,1.293333,0,0,4.262295
19,21092034,2,car,7.1,7.3,38,806.623,893,1.436667,15.050551,0.360377,0,0,1.436667,0,0,0,0
19,21092034,2,car,7.1,7.3,38,823.247,893.4,1.166667,18.533692,0.360377,0.016667,0.056667,1.093333,0,0,0,0
19,21092034,2,pedestrian,7.5,7.6,38,810.693,898.2,1.456667,4.511376,0.109526,0,0,0,1.456667,0,0,0
19,21092034,2,car,7.3,7.1,38,834.833,904.6,1.16,14.159507,0.27375,0,1.16,0,0,0,0,0
19,21092034,2,pedestrian,7.6,7.4,38,751.389,919.4,2.8,4.339444,0.202507,0,0,0,2.8,0,10.595238,0
19,21092034,2,car,7.1,7.3,38,852.812,923.6,1.176667,18.376182,0.360377,0,0,1.176667,0,0,0,2.549575
19,21092034,2,car,7.3,7.1,38,861.798,925,1.053333,15.593382,0.27375,0,0,1.053333,0,0,0,0
19,21092034,2,pedestrian,7.5,7.6,38,840.44,931.8,1.52,4.323402,0.109526,0,0,0,1.52,0.438596,0,0
19,21092034,2,pedestrian,7.4,7.1,38,555.989,933,6.283333,5.164622,0.540851,0.013333,0.003333,0.003333,6.263333,1.37931,0,0
19,21092034,2,pedestrian,7.5,7.6,38,855.945,933.6,1.293333,5.081111,0.109526,0.246667,0.006667,0.003333,1.036667,0,0,0
19,21092034,2,pedestrian,7.6,7.5,38,847.529,935,1.456667,4.511376,0.109526,0,0,0,1.456667,0,0,0
19,21092034,2,pedestrian,7.6,7.5,38,861.258,936.6,1.253333,5.243275,0.109526,0.1,0.003333,0.003333,1.146667,0,0,0
19,21092034,2,bike,7.6,7.1,38,845.005,937.6,1.54,8.649617,0.222007,0,0.66,0.88,0,0,0,3.463203
19,21092034,2,pedestrian,7.3,7.6,38,791.54,939.4,2.463333,4.311621,0.177016,0,0,0,2.463333,0,0,0
19,21092034,2,car,7.1,7.3,38,868.823,941.2,1.203333,17.968931,0.360377,0,0,1.203333,0,0,0,0
19,21092034,2,car,7.1,7.3,38,880.205,941.6,1.02,21.198666,0.360377,0.003333,0.006667,1.01,0,0,0,0
19,21092034,2,bike,7.1,7.6,38,875.695,945.4,1.16,11.483112,0.222007,0,0.496667,0.003333,0.66,0,0,3.16092
19,21092034,2,pedestrian,7.5,7.3,38,708.192,946.8,3.976667,4.323352,0.286542,0,0,0,3.976667,2.011735,0,0
19,21092034,2,pedestrian,7.5,7.3,38,713.328,948.4,3.916667,4.389582,0.286542,0.666667,0.013333,0.016667,3.22,1.361702,0,0
19,21092034,2,pedestrian,7.5,7.3,38,749.766,950.4,3.343333,5.142332,0.286542,0.16,0,0.003333,3.18,0,0,0
19,21092034,2,pedestrian,7.6,7.5,38,866.33,956.6,1.503333,4.371333,0.109526,0,0,0,1.503333,0,0,0
19,21092034,2,pedestrian,7.1,7.4,38,664.794,958.2,4.89,4.710002,0.383865,0,0,0,4.89,1.840491,0,0
19,21092034,2,pedestrian,7.5,7.4,38,712.034,961.6,4.156667,4.504095,0.312034,0.436667,0.006667,0.016667,3.696667,1.523657,0,0
19,21092034,2,pedestrian,7.3,7.5,38,744.106,969.8,3.76,4.572482,0.286542,0,0,0,3.76,0,0,0
19,21092034,2,pedestrian,7.4,7.5,38,719.571,971.6,4.2,4.881473,0.341703,0.343333,0.003333,0.016667,3.836667,0,0,0
19,21092034,2,pedestrian,7.1,7.6,38,782.398,972.2,3.163333,5.483602,0.289108,0,0,0,3.163333,0,1.580611,0
19,21092034,2,car,7.5,7.3,38,839.348,981.6,2.37,14.427089,0.56987,0,2.37,0,0,0,0,0
19,21092034,2,pedestrian,7.5,7.3,38,792.95,992,3.316667,5.183678,0.286542,0.146667,0,0.003333,3.166667,0,0,0
19,21092034,2,pedestrian,7.1,7.4,38,747.184,993,4.096667,5.622109,0.383865,0,0,0,4.096667,0.895037,0,0
19,21092034,2,pedestrian,7.5,7.6,38,861.84,993.4,2.19,3.000708,0.109526,0,0,2.19,0,0,0,0
19,21092034,2,pedestrian,7.1,7.4,38,749.319,999,4.16,5.536516,0.383865,0,0,0,4.16,1.842949,0,0
19,21092034,2,pedestrian,7.5,7.6,38,894.093,1001.8,1.793333,3.664445,0.109526,0.496667,0,0.01,1.286667,0,0,0
19,21092034,2,pedestrian,7.3,7.5,38,775.061,1007,3.863333,4.45018,0.286542,0,0,0,3.863333,0,0,0
19,21092034,2,pedestrian,7.5,7.4,38,776.334,1008.8,3.873333,4.833571,0.312034,0.196667,0.003333,0.013333,3.66,0,0,0
19,21092034,2,pedestrian,7.1,7.5,38,712.173,1009,4.946667,4.835181,0.398634,0.093333,0.01,0.01,4.833333,0.269542,1.886792,0
19,21092034,2,pedestrian,7.3,7.5,38,832.089,1010.6,2.973333,5.782239,0.286542,0.083333,0.003333,0,2.886667,0,1.345291,0
19,21092034,2,pedestrian,7.1,7.3,38,792.161,1021.6,3.823333,5.623976,0.358372,0,0,0,3.823333,0.610288,0,0
19,21092034,2,pedestrian,7.5,7.1,38,554.866,1026.6,7.86,4.033682,0.528412,0,0,0,7.86,0,1.4419,0
19,21092034,2,pedestrian,7.5,7.1,38,576.646,1028.2,7.523333,4.214188,0.528412,1.37,0.06,0.03,6.063333,0,1.772264,0
19,21092034,2,pedestrian,7.5,7.1,38,623.508,1029.8,6.77,4.683126,0.528413,1.116667,0.036667,0.04,5.576667,0,2.067947,0
19,21092034,2,pedestrian,7.4,7.5,38,808.91,1069.2,4.336667,4.727616,0.341702,0,0,0,4.336667,0,0.922367,0
19,21092034,2,pedestrian,7.4,7.5,38,852.139,1084,3.863333,5.306864,0.341703,0,0,0,3.863333,0,0,0
19,21092034,2,pedestrian,7.5,7.4,38,824.833,1093.2,4.47,4.188353,0.312032,0,0,0,4.47,0,0,0
19,21092034,2,pedestrian,7.1,7.6,38,893.247,1102.8,3.49,4.970325,0.289107,0,0,0,3.49,0,1.146132,0
19,21092034,2,pedestrian,7.5,7.1,38,690.207,1124.6,7.236667,4.381109,0.52841,0,0,0,7.236667,0.322432,0.690926,0
19,21092034,2,pedestrian,7.5,7.1,38,696.978,1126.6,7.16,4.42804,0.528413,0.27,0.033333,0.053333,6.803333,0.27933,0.698324,0
19,21092034,2,pedestrian,7.6,7.1,38,801.474,1128.6,5.45,4.611595,0.418887,0.39,0.01,0.036667,5.013333,0,1.039755,0
19,21092034,2,pedestrian,7.1,7.5,38,829.108,1129.4,5.003333,4.780419,0.398634,0,0,0,5.003333,0,1.199201,0
19,21092034,2,pedestrian,7.5,7.1,38,853.523,1162.6,5.15,6.156265,0.528413,0.173333,0.01,0.003333,4.963333,0,0,0
19,21092034,2,pedestrian,7.5,7.3,38,870.381,1179.2,5.146667,3.340518,0.286542,0.903333,0.02,0.953333,3.27,0,0,0
19,21092034,2,pedestrian,7.5,7.4,38,863.285,1214,5.843333,3.203989,0.312033,0.14,0.006667,5.696667,0,0,0,0
19,21092034,2,pedestrian,7.5,7.4,38,879.349,1216,5.61,3.337261,0.312034,1.233333,0.02,1.566667,2.79,0,0,0
19,21092034,2,pedestrian,7.5,7.1,38,877.608,1327.8,7.5,4.227248,0.528406,0.756667,0.006667,0.006667,6.73,0,0,0
