run_id,seed,demand_factor,mode,origin_zone,destination_zone,flow_slot,scheduled_spawn_time_s,arrival_time_s,trajectory_duration_min,average_speed_kmh,trajectory_distance_km,congestion_duration_min,low_speed_duration_min,intermediate_speed_duration_min,high_speed_duration_min,copresence_car_percentage,copresence_bike_percentage,copresence_pedestrian_percentage
3,21092029,3,pedestrian,7.6,7.5,38,0.47,64.4,1.063333,6.29247,0.111517,0,0.003333,0,1.06,0,0,0
3,21092029,3,car,7.1,7.6,38,3.997,81.8,1.296667,17.416798,0.376396,0,0.003333,1.293333,0,0,0,0
3,21092029,3,car,7.1,7.3,38,10.281,88.2,1.296667,16.675558,0.360377,0,0.003333,1.293333,0,0,0,0
3,21092029,3,pedestrian,7.5,7.4,38,19.127,88.6,1.156667,4.598458,0.088648,0,0,0.003333,1.153333,0,46.397695,0
3,21092029,3,car,7.1,7.3,38,11.163,88.8,1.293333,16.718536,0.360377,0.073333,0.243333,0.976667,0,0,0,0
3,21092029,3,car,7.1,7.3,38,35.465,97.4,1.03,20.992855,0.360377,0,0.003333,1.026667,0,0,0,0
3,21092029,3,pedestrian,7.6,7.5,38,19.266,104.2,1.413333,4.734112,0.111515,0,0,0.003333,1.41,0,0,0
3,21092029,3,car,7.1,7.6,38,50.075,108.6,0.973333,23.202509,0.376396,0,0.003333,0.97,0,0,0,0
3,21092029,3,car,7.1,7.3,38,35.845,116.8,1.346667,16.05641,0.360377,0,0.006667,1.34,0,0,0,0
3,21092029,3,car,7.1,7.3,38,54.992,117.2,1.036667,20.857807,0.360377,0.016667,0.036667,0.983333,0,0,0,0
3,21092029,3,pedestrian,7.5,7.6,38,44.689,123,1.303333,5.042126,0.109526,0,0,0,1.303333,0,0,0
3,21092029,3,car,7.3,7.1,38,21.696,125.2,1.723333,17.924846,0.514841,0,0.003333,1.72,0,0,0,0
3,21092029,3,car,7.3,7.1,38,50.986,152,1.683333,18.350783,0.514841,0,0,1.683333,0,0,0,0
3,21092029,3,car,7.1,7.3,38,86.23,152.2,1.096667,19.716693,0.360377,0,0.003333,1.093333,0,0,0,0
3,21092029,3,pedestrian,7.6,7.4,38,28.635,157.8,2.15,5.530444,0.198174,0.04,0.03,0.106667,1.973333,0,0,0
3,21092029,3,pedestrian,7.6,7.4,38,40.898,165.8,2.08,5.716532,0.198173,0,0,0.016667,2.063333,0,0,0
3,21092029,3,pedestrian,7.6,7.5,38,70.359,165.8,1.59,4.208172,0.111517,0.133333,0.073333,0.53,0.853333,0,0,0
3,21092029,3,pedestrian,7.6,7.5,38,79.274,168,1.476667,4.531145,0.111517,0.133333,0.063333,0.186667,1.093333,0,0,0
3,21092029,3,pedestrian,7.1,7.6,38,1.507,168.8,2.786667,6.267942,0.291111,0,0,0,2.786667,0,0.956938,0
3,21092029,3,pedestrian,7.5,7.6,38,85.117,170.8,1.426667,4.606241,0.109526,0,0.003333,0,1.423333,0,0,0
3,21092029,3,bike,7.5,7.1,38,24.841,172,2.45,10.333644,0.421957,0.18,0.863333,0.163333,1.243333,0,0,4.897959
3,21092029,3,pedestrian,7.6,7.5,38,99.274,174.4,1.25,5.352787,0.111516,0,0,0,1.25,0,0,0
3,21092029,3,bike,7.1,7.6,38,79.02,179,1.663333,7.857595,0.21783,0,0.723333,0.94,0,0,0,1.803607
3,21092029,3,bike,7.1,7.6,38,93.725,179.6,1.43,9.13972,0.21783,0.093333,0.643333,0.25,0.443333,0,0,1.864802
3,21092029,3,bike,7.5,7.1,38,43.68,183.8,2.333333,10.850332,0.421957,0.243333,0.853333,0.216667,1.02,0,0,5.714286
3,21092029,3,pedestrian,7.5,7.6,38,123.652,193.2,1.156667,5.681473,0.109526,0,0.003333,0,1.153333,0.864553,0,0
3,21092029,3,car,7.1,7.6,38,125.622,193.6,1.13,19.985638,0.376396,0.006667,0.01,1.113333,0,0,0,2.064897
3,21092029,3,bike,7.1,7.6,38,130.009,201.8,1.193333,10.952313,0.217829,0,0.526667,0,0.666667,0,0,2.793296
3,21092029,3,bike,7.1,7.6,38,137.02,202.4,1.086667,12.027423,0.21783,0.036667,0.453333,0.08,0.516667,0,0,1.533742
3,21092029,3,car,7.1,7.3,38,118.628,205.8,1.45,14.912166,0.360377,0,1.45,0,0,0,0,0
3,21092029,3,bike,7.1,7.6,38,138.924,207,1.133333,11.532176,0.21783,0,0.493333,0.003333,0.636667,0,0,1.470588
3,21092029,3,car,7.1,7.6,38,129.37,217.4,1.466667,15.39801,0.376396,0,0.003333,1.463333,0,0,0,0.681818
3,21092029,3,car,7.1,7.3,38,142.388,233.6,1.52,14.225421,0.360377,0,1.52,0,0,0,0,0
3,21092029,3,pedestrian,7.6,7.4,38,63.744,243.2,2.99,3.976704,0.198172,0,0,2.99,0,0,0,0
3,21092029,3,car,7.1,7.3,38,171.155,247.6,1.273333,16.981131,0.360377,0,0.003333,1.27,0,0,0,0.78534
3,21092029,3,car,7.1,7.3,38,187.242,248,1.01,21.408555,0.360377,0.026667,0.056667,0.926667,0,0,0,0
3,21092029,3,pedestrian,7.5,7.6,38,139.612,250.2,1.84,3.571505,0.109526,0,0,1.84,0,0,0,0
3,21092029,3,pedestrian,7.5,7.6,38,163.329,250.8,1.456667,4.511375,0.109526,0.136667,0.11,0.3,0.91,0,0,0
3,21092029,3,car,7.3,7.1,38,171.279,251.8,1.34,23.0526,0.514841,0.036667,0.023333,1.28,0,0,0,0
3,21092029,3,bike,7.1,7.6,38,177.462,260.8,1.386667,9.425324,0.21783,0,0.603333,0.783333,0,0,0,2.163462
3,21092029,3,pedestrian,7.5,7.4,38,200.611,263.2,1.04,5.113739,0.088638,0.023333,0.003333,0.01,1.003333,1.282051,0,0
3,21092029,3,bike,7.1,7.6,38,192.865,268,1.25,10.455814,0.217829,0.076667,0.536667,0.003333,0.633333,0,0,13.6
3,21092029,3,bike,7.1,7.5,38,150.201,272,2.026667,12.492169,0.421958,0,0.53,0.003333,1.493333,0,0,7.236842
3,21092029,3,pedestrian,7.5,7.4,38,201.216,289.4,1.466667,3.626511,0.088648,0.043333,0.003333,1.42,0,1.590909,0,0
3,21092029,3,pedestrian,7.5,7.4,38,203.665,291.2,1.456667,3.651407,0.088648,0.156667,0.076667,0.576667,0.646667,1.830664,0,0
3,21092029,3,car,7.1,7.6,38,208.566,293,1.406667,16.054818,0.376396,0,0.003333,1.403333,0,0,0,0
3,21092029,3,car,7.1,7.3,38,229.866,298,1.133333,19.0788,0.360377,0,0.02,1.113333,0,0,0,0
3,21092029,3,bike,7.6,7.1,38,222.447,299.6,1.283333,10.184259,0.21783,0.08,0.56,0.013333,0.63,0,0,11.428571
3,21092029,3,car,7.1,7.3,38,233.065,300.2,1.116667,19.363559,0.360377,0,0.003333,1.113333,0,0,0,0
3,21092029,3,car,7.3,7.1,38,203.046,302.2,1.65,18.721505,0.514841,0,0,1.65,0,0,0,0
3,21092029,3,car,7.1,7.3,38,247.458,311.2,1.06,20.398689,0.360377,0,0.003333,1.056667,0,0,0,0
3,21092029,3,car,7.1,7.6,38,224.75,319.6,1.58,14.293532,0.376396,0.01,0.173333,1.396667,0,0,0,0
3,21092029,3,car,7.3,7.6,38,145.407,320.2,2.91,17.253373,0.836789,0.01,0.106667,2.793333,0,0,0,0
3,21092029,3,car,7.3,7.6,38,145.895,321,2.916667,17.213924,0.836788,0.006667,0.05,2.86,0,0,0,0
3,21092029,3,pedestrian,7.5,7.4,38,237.707,324.4,1.443333,3.685138,0.088648,0,0.003333,1.44,0,0.230947,1.154734,0
3,21092029,3,pedestrian,7.5,7.4,38,259.176,326.2,1.116667,4.763179,0.088648,0.026667,0.026667,0.126667,0.936667,0,1.791045,0
3,21092029,3,pedestrian,7.5,7.4,38,260.666,328.2,1.123333,4.734711,0.088644,0.02,0.02,0.043333,1.04,0,1.780415,0
3,21092029,3,car,7.1,7.5,38,216.635,332.6,1.93,12.546326,0.403573,0,1.93,0,0,0,0,0.172712
3,21092029,3,car,7.5,7.3,38,203.544,332.8,2.153333,15.82309,0.567873,0,0.003333,2.15,0,0,0,0.309598
3,21092029,3,car,7.1,7.3,38,259.308,333.4,1.233333,17.531871,0.360377,0,0.096667,1.136667,0,0,0,1.081081
3,21092029,3,bike,7.1,7.6,38,243.379,333.6,1.503333,8.69388,0.21783,0.196667,0.73,0.08,0.496667,0,0,6.430155
3,21092029,3,bike,7.6,7.1,38,275.493,347.6,1.2,10.891499,0.21783,0,0.52,0.003333,0.676667,0,0,10.555556
3,21092029,3,pedestrian,7.1,7.6,38,25.286,347.8,5.373333,3.250593,0.291109,0,0,5.373333,0,0,4.218362,0
3,21092029,3,car,7.3,7.1,38,205.174,350.8,2.426667,12.729595,0.514841,0,2.426667,0,0,0,0,0.824176
3,21092029,3,pedestrian,7.1,7.3,38,22.595,352,5.49,3.845621,0.351874,0,0.003333,5.486667,0,1.214329,0,0
3,21092029,3,pedestrian,7.4,7.6,38,137.268,352.4,3.583333,4.343645,0.259412,0.19,0.03,0.096667,3.266667,0.465116,0.744186,0
3,21092029,3,pedestrian,7.1,7.3,38,63.004,352.8,4.826667,4.374128,0.351874,0.626667,0.373333,1.29,2.536667,1.588398,0,0
3,21092029,3,pedestrian,7.5,7.3,38,17.442,354.8,5.62,5.520533,0.51709,0.12,0.066667,0.17,5.263333,1.008304,3.618031,0
3,21092029,3,pedestrian,7.5,7.3,38,26.631,356.6,5.496667,5.6444,0.51709,0.18,0.07,0.09,5.156667,0.363857,4.669497,0
3,21092029,3,car,7.1,7.3,38,271.504,358.2,1.443333,14.981044,0.360377,0,1.443333,0,0,0,0,0
3,21092029,3,pedestrian,7.5,7.3,38,32.972,358.4,5.423333,5.720724,0.51709,0.03,0.02,0.023333,5.35,0.614628,0,0
3,21092029,3,pedestrian,7.5,7.4,38,302.619,360,0.953333,5.579248,0.088648,0,0.003333,0,0.95,0.34965,0,0
3,21092029,3,pedestrian,7.6,7.5,38,282.466,361.4,1.313333,5.094665,0.111517,0,0.003333,0,1.31,0,0,0
3,21092029,3,car,7.3,7.1,38,240.896,361.6,2.01,15.3684,0.514841,0,0.003333,2.006667,0,0,0,0.66335
3,21092029,3,car,7.3,7.1,38,247.034,362.2,1.916667,16.116774,0.514841,0.06,0.333333,1.523333,0,0,0,0.521739
3,21092029,3,pedestrian,7.1,7.4,38,85.502,363.8,4.636667,5.023473,0.388203,0.053333,0.026667,0.23,4.326667,1.150252,0.790798,0
3,21092029,3,bike,7.1,7.5,38,209.641,363.8,2.566667,9.863946,0.421958,0.18,0.96,0.033333,1.393333,0,0,9.480519
3,21092029,3,pedestrian,7.1,7.6,38,132.876,364.6,3.86,4.525043,0.291111,0.313333,0.126667,0.453333,2.966667,0,17.789292,0
3,21092029,3,bike,7.6,7.1,38,294.792,368,1.22,10.71295,0.21783,0,0.53,0.003333,0.686667,0,0,11.202186
3,21092029,3,car,7.5,7.3,38,234.718,369.8,2.25,15.143283,0.567873,0.003333,0.003333,2.243333,0,0,0,1.185185
3,21092029,3,car,7.5,7.3,38,242.735,370.2,2.123333,16.046624,0.567872,0.116667,0.296667,1.71,0,0,0,1.098901
3,21092029,3,bike,7.1,7.6,38,287.82,378.6,1.51,8.655496,0.21783,0.05,0.696667,0.763333,0,0,0,5.739514
3,21092029,3,pedestrian,7.5,7.4,38,322.2,381.4,0.986667,5.39076,0.088648,0.103333,0.003333,0.066667,0.813333,0,1.689189,0
3,21092029,3,pedestrian,7.3,7.6,38,34.772,386.2,5.856667,5.171139,0.504761,0,0,0,5.856667,1.878201,1.195219,0
3,21092029,3,pedestrian,7.5,7.4,38,332.095,387.2,0.916667,5.802418,0.088648,0.026667,0.026667,0.033333,0.83,0.727273,1.818182,0
3,21092029,3,pedestrian,7.5,7.3,38,37.703,389.4,5.86,5.294436,0.51709,0,0,0,5.86,1.706485,15.358362,0
3,21092029,3,bike,7.6,7.1,38,323.896,392.6,1.143333,11.431311,0.21783,0,0.496667,0.003333,0.643333,0,0,6.413994
3,21092029,3,pedestrian,7.6,7.5,38,304.981,394.2,1.486667,4.500668,0.111517,0,0,0.003333,1.483333,0,0,0
3,21092029,3,pedestrian,7.6,7.1,38,7.159,395.4,6.47,3.903151,0.42089,0,0,6.47,0,0,3.503349,0
3,21092029,3,pedestrian,7.6,7.5,38,308.308,396.2,1.463333,4.572433,0.111517,0.006667,0.013333,0.123333,1.32,0,0,0
3,21092029,3,car,7.1,7.6,38,322.179,398.2,1.266667,17.829266,0.376396,0,0,1.266667,0,0,0,0
3,21092029,3,pedestrian,7.6,7.5,38,308.813,398.6,1.493333,4.480574,0.111517,0.016667,0,0.026667,1.45,0,0,0
3,21092029,3,pedestrian,7.1,7.6,38,156.011,402,4.096667,4.263629,0.291111,0.176667,0.226667,0.55,3.143333,0,3.498779,0
3,21092029,3,bike,7.1,7.6,38,335.728,404.8,1.15,11.365043,0.21783,0.106667,0.536667,0.07,0.436667,0,0,8.985507
3,21092029,3,pedestrian,7.1,7.6,38,165.856,405.6,3.993333,4.373956,0.291111,0.456667,0.186667,0.273333,3.076667,0,24.874791,0
3,21092029,3,pedestrian,7.5,7.4,38,342.927,409.8,1.113333,4.77744,0.088648,0,0,0.003333,1.11,0,1.497006,0
3,21092029,3,car,7.3,7.1,38,307.386,411.4,1.733333,17.821433,0.514841,0,0.003333,1.73,0,0,0,0
3,21092029,3,pedestrian,7.5,7.6,38,338.399,413.2,1.246667,5.271313,0.109526,0,0,0.003333,1.243333,1.069519,0,0
3,21092029,3,bike,7.1,7.5,38,297.036,416.4,1.986667,12.743689,0.421958,0.166667,0.616667,0.243333,0.96,0,0,9.731544
3,21092029,3,pedestrian,7.5,7.1,38,45.864,424.4,6.306667,4.976826,0.52312,0,0.003333,0,6.303333,0.369979,1.215645,0
3,21092029,3,car,7.3,7.6,38,211.868,440.8,3.813333,13.166245,0.836788,0,3.813333,0,0,0,0,0.087413
3,21092029,3,pedestrian,7.1,7.5,38,37.521,441.4,6.73,3.589548,0.402628,0.556667,0.236667,1.496667,4.44,0,12.13472,0
3,21092029,3,car,7.1,7.6,38,336.924,441.6,1.743333,12.954366,0.376396,0.083333,1.66,0,0,0,0,0
3,21092029,3,car,7.3,7.1,38,329.116,443.6,1.906667,16.200977,0.514831,0,0,1.906667,0,0,0,0
3,21092029,3,bike,7.6,7.1,38,353.91,444.4,1.506667,8.674645,0.21783,0.09,0.693333,0.066667,0.656667,0,0,11.725664
3,21092029,3,bike,7.6,7.1,38,360.746,446.4,1.426667,9.161074,0.21783,0.11,0.596667,0.103333,0.616667,0,0,9.813084
3,21092029,3,car,7.1,7.6,38,378.892,449.8,1.18,19.138794,0.376396,0,0.003333,1.176667,0,0,0,0
3,21092029,3,pedestrian,7.5,7.6,38,347.066,452.2,1.75,3.755183,0.109526,0,0.003333,1.746667,0,0,0,0
3,21092029,3,car,7.6,7.3,38,303.755,452.8,2.483333,10.734176,0.444276,0.03,2.453333,0,0,0,0,0
3,21092029,3,car,7.1,7.3,38,364.826,453,1.466667,14.742707,0.360377,0.12,0.406667,0.94,0,0,0,0
3,21092029,3,bike,7.5,7.1,38,302.695,462.4,2.66,9.517843,0.421958,0.193333,0.913333,0.183333,1.37,0.250627,0,4.135338
3,21092029,3,car,7.1,7.3,38,385.917,462.8,1.28,16.892688,0.360377,0,0.003333,1.276667,0,0,0,0.78125
3,21092029,3,pedestrian,7.1,7.3,38,150.103,463.6,5.223333,4.041948,0.351874,0,0.003333,0,5.22,1.276324,0.574346,0
3,21092029,3,pedestrian,7.5,7.3,38,68.065,465,6.613333,4.69134,0.51709,0.206667,0.213333,0.506667,5.686667,0.403226,0,0
3,21092029,3,pedestrian,7.1,7.5,38,80.807,468.2,6.453333,3.743439,0.402628,0,0.003333,6.45,0,0,4.545455,0
3,21092029,3,pedestrian,7.1,7.5,38,136.327,469.2,5.546667,4.355347,0.402628,0.38,0.543333,1.07,3.553333,0,4.206731,0
3,21092029,3,bike,7.6,7.1,38,393.488,469.6,1.266667,10.318262,0.21783,0,0.55,0.003333,0.713333,0,0,1.315789
3,21092029,3,pedestrian,7.4,7.5,38,156.486,472.6,5.266667,4.225784,0.37093,0.02,0.036667,0.093333,5.116667,0,0,0
3,21092029,3,car,7.1,7.3,38,416.107,472.8,0.943333,22.921517,0.360377,0,0.003333,0.94,0,0,0,0
3,21092029,3,pedestrian,7.4,7.5,38,186.121,474,4.796667,4.639846,0.37093,0.186667,0.133333,0.43,4.046667,0.277971,0.416956,0
3,21092029,3,pedestrian,7.1,7.6,38,228.473,475.4,4.113333,4.246352,0.291111,0,0,0.003333,4.11,0,4.051864,0
3,21092029,3,pedestrian,7.6,7.5,38,379.153,475.4,1.603333,4.173177,0.111517,0.26,0.113333,0.143333,1.086667,0,0,0
3,21092029,3,pedestrian,7.5,7.4,38,418.505,480.6,1.033333,5.147306,0.088648,0,0.003333,0,1.03,0,0,0
3,21092029,3,pedestrian,7.5,7.6,38,388.833,482,1.55,4.239723,0.109526,0,0,0.003333,1.546667,0,0,0
3,21092029,3,car,7.3,7.1,38,378.605,482.2,1.723333,17.92483,0.514841,0,0.003333,1.72,0,0,0,0
3,21092029,3,pedestrian,7.5,7.6,38,397.447,483.8,1.436667,4.574179,0.109526,0,0.003333,0.076667,1.356667,0,0,0
3,21092029,3,pedestrian,7.5,7.6,38,400.463,493.2,1.543333,4.258037,0.109526,0,0,0.003333,1.54,0,0,0
3,21092029,3,pedestrian,7.1,7.5,38,155.006,493.6,5.64,4.283273,0.402628,0.006667,0.003333,0.003333,5.626667,0,2.48227,0
3,21092029,3,pedestrian,7.5,7.6,38,412.389,494.2,1.363333,4.820204,0.109526,0.146667,0.006667,0.106667,1.103333,0,0,0
3,21092029,3,pedestrian,7.3,7.5,38,40.171,495,7.58,4.878184,0.616277,0.276667,0.213333,0.35,6.74,1.539138,1.451187,0
3,21092029,3,pedestrian,7.6,7.5,38,406.091,497.2,1.516667,4.411644,0.111517,0.06,0.096667,0.143333,1.216667,0,0,0
3,21092029,3,pedestrian,7.6,7.1,38,92.171,500.6,6.806667,3.710098,0.42089,0,0.003333,6.803333,0,0.146915,3.819785,0
3,21092029,3,pedestrian,7.5,7.3,38,86.086,501.8,6.926667,4.479123,0.51709,0,0,0.003333,6.923333,0.625602,0,0
3,21092029,3,pedestrian,7.6,7.1,38,123.727,502.4,6.31,4.002123,0.42089,0.65,0.763333,1.426667,3.47,0,3.697834,0
3,21092029,3,pedestrian,7.5,7.3,38,112.943,503.6,6.51,4.765806,0.51709,0.116667,0.113333,0.793333,5.486667,0.614439,0,0
3,21092029,3,pedestrian,7.5,7.1,38,46.594,505.2,7.643333,4.10648,0.52312,0.153333,0.093333,0.22,7.176667,0,1.003053,0
3,21092029,3,pedestrian,7.5,7.3,38,167.615,505.2,5.623333,5.517261,0.51709,0.113333,0.06,0.33,5.12,1.481921,0,0
3,21092029,3,pedestrian,7.5,7.1,38,105.526,507.2,6.693333,4.689322,0.52312,0.273333,0.13,0.543333,5.746667,0.697211,0,0
3,21092029,3,pedestrian,7.1,7.3,38,303.429,507.2,3.393333,6.221746,0.351874,0,0,0.003333,3.39,0.982318,0,0
3,21092029,3,pedestrian,7.5,7.1,38,128.249,509,6.343333,4.948059,0.52312,0.246667,0.07,0.083333,5.943333,0.578035,0.525486,0
3,21092029,3,bike,7.1,7.6,38,409.266,509,1.66,7.873373,0.21783,0.093333,0.803333,0.763333,0,0,0,5.02008
3,21092029,3,bike,7.1,7.6,38,438.027,510,1.196667,10.921838,0.21783,0,0.52,0,0.676667,0,0,0
3,21092029,3,car,7.1,7.6,38,427.47,510.6,1.383333,16.325625,0.376396,0,0.003333,1.38,0,0,0,0.963855
3,21092029,3,pedestrian,7.3,7.1,38,216.065,510.8,4.91,5.86135,0.479654,0.056667,0.033333,0.073333,4.746667,1.561439,0,0
3,21092029,3,car,7.1,7.3,38,439.347,512.2,1.213333,17.820858,0.360377,0,0.003333,1.21,0,0,0,0
3,21092029,3,pedestrian,7.6,7.1,38,188.034,512.4,5.403333,4.673671,0.42089,0.716667,0.316667,0.866667,3.503333,0.555213,6.230722,0
3,21092029,3,bike,7.1,7.6,38,439.499,515,1.256667,10.400371,0.21783,0.016667,0.54,0.02,0.68,0,0,2.122016
3,21092029,3,pedestrian,7.5,7.4,38,451.293,519.8,1.14,4.665687,0.088648,0,0.016667,0.05,1.073333,0,0,0
3,21092029,3,car,7.1,7.3,38,449.717,538.6,1.48,14.609878,0.360377,0,1.48,0,0,0,0,1.351351
3,21092029,3,car,7.1,7.3,38,466.906,539.2,1.203333,17.968921,0.360377,0.013333,0.146667,1.043333,0,0,0,0
3,21092029,3,bike,7.6,7.1,38,449.597,543.4,1.563333,8.360212,0.21783,0,0.68,0.883333,0,0,0,10.447761
3,21092029,3,pedestrian,7.5,7.4,38,463.176,545.2,1.366667,3.891865,0.088648,0.026667,0.07,0.276667,0.993333,0,0,0
3,21092029,3,pedestrian,7.5,7.3,38,199.438,547.8,5.803333,5.346134,0.51709,0.013333,0.006667,0.01,5.773333,0.919012,0.287191,0
3,21092029,3,car,7.1,7.6,38,469.155,548.6,1.323333,17.065812,0.376396,0,0.003333,1.32,0,0,0,0
3,21092029,3,pedestrian,7.5,7.6,38,458.458,551.2,1.543333,4.258037,0.109526,0,0.003333,0,1.54,0,0,0
3,21092029,3,car,7.3,7.6,38,379.737,552.6,2.88,17.433095,0.836789,0,0.003333,2.876667,0,0,0,0.810185
3,21092029,3,car,7.3,7.1,38,433.599,553.8,2.003333,15.419542,0.514841,0,0,2.003333,0,0,0,0.665557
3,21092029,3,bike,7.1,7.6,38,457.018,554.2,1.616667,8.084412,0.21783,0.07,0.776667,0.77,0,0,0,0.824742
3,21092029,3,car,7.3,7.1,38,433.426,554.4,2.013333,15.342956,0.514841,0.073333,0.413333,1.526667,0,0,0,0.827815
3,21092029,3,pedestrian,7.5,7.6,38,468.484,560.6,1.533333,4.285807,0.109526,0,0.003333,0,1.53,0,0,0
3,21092029,3,pedestrian,7.3,7.5,38,43.409,562.6,8.65,4.274754,0.616277,0,0.003333,0,8.646667,1.387283,1.040462,0
3,21092029,3,pedestrian,7.3,7.5,38,63.091,564.6,8.356667,4.424806,0.616277,0.093333,0.063333,0.94,7.26,1.196649,4.666933,0
3,21092029,3,pedestrian,7.6,7.5,38,471.262,570.2,1.646667,4.063356,0.111517,0.14,0.153333,0.156667,1.196667,0,0,0
3,21092029,3,bike,7.1,7.6,38,489.326,570.4,1.35,9.681333,0.21783,0,0.586667,0.763333,0,0,0,3.209877
3,21092029,3,pedestrian,7.1,7.5,38,253.854,572.2,5.303333,4.555184,0.402628,0.31,0.343333,0.306667,4.343333,0,3.331238,0
3,21092029,3,pedestrian,7.6,7.1,38,166.099,573.4,6.786667,3.721032,0.42089,0.046667,0.003333,6.736667,0,0.343811,3.880157,0
3,21092029,3,pedestrian,7.3,7.6,38,243.973,574.2,5.503333,5.503145,0.504761,0.043333,0.046667,0.16,5.253333,1.695942,5.754088,0
3,21092029,3,pedestrian,7.6,7.5,38,499.591,574.2,1.243333,5.381496,0.111517,0,0.003333,0,1.24,0,0,0
3,21092029,3,pedestrian,7.5,7.1,38,198.716,575.2,6.273333,5.003273,0.52312,0.166667,0.08,0.433333,5.593333,0,0.42508,0
3,21092029,3,bike,7.6,7.1,38,494.553,584.6,1.5,8.713186,0.21783,0,0.65,0.85,0,0,0,12
3,21092029,3,car,7.1,7.6,38,524.653,595.2,1.173333,19.247541,0.376396,0.043333,0.073333,1.056667,0,0,0,0
3,21092029,3,pedestrian,7.1,7.3,38,317.789,601.8,4.733333,4.460377,0.351874,0,0,0.003333,4.73,0.84507,0.070423,0
3,21092029,3,pedestrian,7.5,7.3,38,223.414,603.4,6.33,4.901326,0.51709,0.11,0.176667,0.47,5.573333,0.684571,0.263296,0
3,21092029,3,pedestrian,7.3,7.5,38,82.066,605.2,8.716667,4.242061,0.616277,0,0.003333,0,8.713333,1.759082,0.650096,0
3,21092029,3,car,7.1,7.3,38,524.002,608.4,1.403333,15.408057,0.360377,0,0.003333,1.4,0,0,0,0
3,21092029,3,car,7.1,7.3,38,530.006,609,1.313333,16.46393,0.360377,0.003333,0.083333,1.226667,0,0,0,0
3,21092029,3,car,7.1,7.6,38,543.331,612.2,1.146667,19.695158,0.376396,0.016667,0.026667,1.103333,0,0,0,0.872093
3,21092029,3,pedestrian,7.3,7.4,38,216.763,614.2,6.623333,4.619602,0.509953,0.016667,0,0.006667,6.6,1.358832,0,0
3,21092029,3,pedestrian,7.5,7.4,38,552.823,616,1.05,5.065603,0.088648,0.033333,0.023333,0.096667,0.896667,0,0,0
3,21092029,3,pedestrian,7.3,7.4,38,283.348,617.6,5.57,5.493207,0.509953,0.286667,0.14,0.34,4.803333,1.137044,0,0
3,21092029,3,pedestrian,7.1,7.5,38,280.721,617.8,5.616667,4.301064,0.402627,0,0,0.003333,5.613333,0,3.204748,0
3,21092029,3,pedestrian,7.1,7.5,38,292.298,618.6,5.436667,4.443469,0.402628,0.95,0.5,0.053333,3.933333,0.429185,3.188228,0
3,21092029,3,pedestrian,7.3,7.4,38,292.108,619.6,5.456667,5.607299,0.509953,0.003333,0.006667,0.013333,5.433333,0.488699,0,0
3,21092029,3,pedestrian,7.6,7.5,38,532.751,621.6,1.48,4.520941,0.111517,0.053333,0.086667,0.096667,1.243333,0,0,0
3,21092029,3,car,7.1,7.3,38,540.183,621.8,1.36,15.899,0.360377,0,0.003333,1.356667,0,0,0,1.22549
3,21092029,3,car,7.1,7.3,38,547.388,622.4,1.25,17.298112,0.360377,0.003333,0.176667,1.07,0,0,0,0.8
3,21092029,3,car,7.1,7.3,38,552.709,623,1.17,18.480889,0.360377,0.003333,0.05,1.116667,0,0,0,1.139601
3,21092029,3,bike,7.1,7.6,38,541.884,623.6,1.36,9.610146,0.21783,0,0.59,0.77,0,0,0,1.715686
3,21092029,3,bike,7.1,7.5,38,511.647,627.4,1.926667,13.140551,0.421958,0.046667,0.493333,0.023333,1.363333,0,0,11.418685
3,21092029,3,pedestrian,7.3,7.5,38,119.224,627.8,8.473333,4.363874,0.616276,0.05,0.01,0,8.413333,2.084972,0.393391,0
3,21092029,3,car,7.1,7.3,38,556.992,638,1.35,16.016771,0.360377,0,0,1.35,0,0,0,0
3,21092029,3,bike,7.6,7.1,38,545.402,638.6,1.55,8.432128,0.21783,0,0.673333,0.876667,0,0,0,5.376344
3,21092029,3,car,7.1,7.3,38,568.199,638.6,1.173333,18.42838,0.360377,0.01,0.07,1.093333,0,0,0,0
3,21092029,3,bike,7.6,7.1,38,564.72,640.2,1.256667,10.400371,0.21783,0.076667,0.576667,0.003333,0.6,0,0,7.692308
3,21092029,3,bike,7.6,7.1,38,549.294,642.4,1.55,8.432128,0.21783,0.146667,0.676667,0.18,0.546667,0,0,7.311828
3,21092029,3,pedestrian,7.3,7.5,38,186.273,643,7.61,4.858951,0.616277,0.01,0.006667,0.003333,7.59,1.883487,6.132282,0
3,21092029,3,pedestrian,7.6,7.4,38,471.02,643,2.863333,4.152661,0.198174,0.026667,0.01,0.003333,2.823333,0,0,0
3,21092029,3,car,7.1,7.3,38,578.196,644.2,1.1,19.656946,0.360377,0,0.003333,1.096667,0,0,0,0
3,21092029,3,car,7.1,7.3,38,581.509,644.8,1.053333,20.527823,0.360377,0.01,0.126667,0.916667,0,0,0,0.632911
3,21092029,3,car,7.5,7.3,38,546.662,648.8,1.7,20.04258,0.567873,0.003333,0.01,1.686667,0,0,0,1.176471
3,21092029,3,car,7.3,7.1,38,538.11,651,1.88,16.431108,0.514841,0,0.003333,1.876667,0,0,0,0
3,21092029,3,pedestrian,7.6,7.3,38,277.582,654.4,6.28,4.84165,0.506759,0,0,0,6.28,1.804671,2.335456,0
3,21092029,3,pedestrian,7.5,7.1,38,228.77,659,7.17,4.377548,0.523117,0.016667,0.01,0.003333,7.14,0.23245,1.02278,0
3,21092029,3,pedestrian,7.5,7.1,38,238.066,661,7.046667,4.45419,0.52312,0.15,0.1,0.883333,5.913333,0.141911,0.567644,0
3,21092029,3,pedestrian,7.5,7.1,38,244.52,663.2,6.976667,4.498881,0.52312,0.08,0.11,0.38,6.406667,0,0.28667,0
3,21092029,3,car,7.3,7.1,38,585.174,664.4,1.32,23.401872,0.514841,0,0,1.32,0,0,0,0.505051
3,21092029,3,pedestrian,7.5,7.1,38,249.696,665.4,6.926667,4.531357,0.52312,0.126667,0.103333,0.326667,6.37,0,0.288739,0
3,21092029,3,bike,7.1,7.6,38,597.137,670.4,1.22,10.71295,0.21783,0.133333,0.573333,0.106667,0.406667,0,0,7.923497
3,21092029,3,pedestrian,7.5,7.6,38,590.915,679.4,1.473333,4.460342,0.109526,0,0.003333,0,1.47,0,0,0
3,21092029,3,car,7.1,7.3,38,602.806,681.2,1.303333,16.590261,0.360377,0,0.003333,1.3,0,0,0,0
3,21092029,3,car,7.1,7.3,38,605.269,682,1.276667,16.936794,0.360377,0.003333,0.116667,1.156667,0,0,0,0
3,21092029,3,pedestrian,7.5,7.3,38,282.604,683.4,6.676667,4.646813,0.517087,0,0,0.003333,6.673333,0.748877,0.449326,0
3,21092029,3,pedestrian,7.1,7.3,38,421.376,684.8,4.39,4.809211,0.351874,0.17,0.183333,0.55,3.486667,1.214882,0.379651,0
3,21092029,3,pedestrian,7.6,7.1,38,309.929,686.6,6.276667,4.02335,0.420887,0,0,0,6.276667,0,8.337759,0
3,21092029,3,car,7.1,7.5,38,619.746,687.4,1.126667,21.492088,0.403574,0,0.003333,1.123333,0,0,0,0
3,21092029,3,pedestrian,7.5,7.1,38,284.222,688.8,6.74,4.656853,0.52312,0.03,0.04,0.216667,6.453333,1.582591,11.226508,0
3,21092029,3,pedestrian,7.6,7.4,38,533.363,688.8,2.59,4.590909,0.198174,0.053333,0.04,0.073333,2.423333,0,0.643501,0
3,21092029,3,pedestrian,7.5,7.4,38,626.427,690.4,1.063333,5.002084,0.088648,0.066667,0.07,0.09,0.836667,0.940439,0,0
3,21092029,3,pedestrian,7.6,7.1,38,405.043,690.6,4.756667,5.309054,0.42089,0.056667,0.023333,0.04,4.636667,0.911002,2.733006,0
3,21092029,3,car,7.1,7.3,38,627.451,694.6,1.116667,19.363559,0.360377,0,0.003333,1.113333,0,0,0,0
3,21092029,3,pedestrian,7.5,7.6,38,603.652,694.8,1.516667,4.332904,0.109526,0,0,0.003333,1.513333,0,0,0
3,21092029,3,pedestrian,7.5,7.4,38,638.076,706.4,1.136667,4.679369,0.088648,0,0.003333,0,1.133333,0,0,0
3,21092029,3,pedestrian,7.5,7.1,38,332.829,708.6,6.26,5.013926,0.52312,0.13,0.063333,0.416667,5.65,1.064963,0.319489,0
3,21092029,3,pedestrian,7.5,7.1,38,325.386,710.4,6.416667,4.891511,0.52312,0.47,0.283333,0.383333,5.28,0.883117,0.571429,0
3,21092029,3,pedestrian,7.1,7.4,38,414.788,711.8,4.95,4.705494,0.388203,0,0.003333,0,4.946667,0.808081,0.942761,0
3,21092029,3,pedestrian,7.5,7.4,38,641.253,716.2,1.246667,4.266484,0.088648,0.026667,0.01,0.003333,1.206667,0,0,0
3,21092029,3,bike,7.1,7.6,38,624.032,719.6,1.59,8.219999,0.21783,0.053333,0.763333,0.773333,0,0,0,2.096436
3,21092029,3,bike,7.1,7.6,38,634.106,720.4,1.436667,9.097308,0.21783,0.106667,0.653333,0.22,0.456667,0,0,2.088167
3,21092029,3,pedestrian,7.5,7.4,38,643.298,724.8,1.356667,3.920552,0.088648,0.013333,0.003333,1.34,0,0.2457,0,0
3,21092029,3,pedestrian,7.5,7.4,38,662.703,726.6,1.063333,5.002084,0.088648,0.006667,0.013333,0.083333,0.96,0.31348,0,0
3,21092029,3,pedestrian,7.4,7.6,38,513.258,727,3.56,4.372135,0.259413,0.056667,0.01,0.006667,3.486667,0.842697,0,0
3,21092029,3,pedestrian,7.5,7.3,38,321.021,729.2,6.8,4.562558,0.51709,0,0,0.003333,6.796667,1.323529,0.441176,0
3,21092029,3,pedestrian,7.3,7.4,38,341.58,730.2,6.476667,4.724215,0.509953,0,0,0,6.476667,0.874936,0,0
3,21092029,3,pedestrian,7.5,7.3,38,332.425,730.6,6.633333,4.677148,0.517085,0.296667,0.31,0.806667,5.22,1.457286,0.251256,0
3,21092029,3,car,7.5,7.1,38,651.949,730.6,1.31,19.148223,0.41807,0.063333,0.003333,1.243333,0,0,0,1.017812
3,21092029,3,pedestrian,7.5,7.3,38,338.217,733.4,6.583333,4.712718,0.51709,0.003333,0.006667,0.126667,6.446667,0.810127,0.506329,0
3,21092029,3,bike,7.6,7.1,38,658.194,735.4,1.286667,10.157875,0.21783,0,0.56,0.003333,0.723333,0,0,7.772021
3,21092029,3,car,7.1,7.3,38,673.166,739.4,1.103333,19.597559,0.360377,0.033333,0.07,1,0,0,0,0.906344
3,21092029,3,pedestrian,7.6,7.4,38,582.508,746.4,2.73,4.355477,0.198174,0,0.003333,0,2.726667,0,0,0
3,21092029,3,car,7.1,7.3,38,688.578,754.6,1.1,19.656946,0.360377,0.05,0.003333,1.046667,0,0,0,0.909091
3,21092029,3,car,7.1,7.6,38,669.968,760.6,1.51,14.956113,0.376395,0,1.51,0,0,0,0,1.103753
3,21092029,3,car,7.3,7.6,38,604.11,761.2,2.616667,19.18751,0.836789,0.01,0.053333,2.553333,0,0,0,0.89172
3,21092029,3,bike,7.1,7.6,38,676.238,761.2,1.413333,9.247496,0.21783,0.026667,0.636667,0.75,0,0,0,2.358491
3,21092029,3,bike,7.1,7.6,38,679.433,761.8,1.37,9.539999,0.21783,0.083333,0.613333,0.21,0.463333,0,0,6.812652
3,21092029,3,pedestrian,7.3,7.1,38,345.211,762.6,6.953333,4.138892,0.479652,0.006667,0.003333,0.003333,6.94,0.910834,0,0
3,21092029,3,pedestrian,7.5,7.1,38,363.019,764.8,6.693333,4.689322,0.52312,0.193333,0.17,0.26,6.07,0.846614,1.344622,0
3,21092029,3,pedestrian,7.5,7.1,38,362.965,766.4,6.723333,4.668398,0.52312,0.73,0.166667,0.73,5.096667,0.6941,1.090729,0
3,21092029,3,pedestrian,7.1,7.5,38,344.699,767.4,7.043333,3.429862,0.402628,0,0,7.043333,0,0,5.016564,0
3,21092029,3,car,7.1,7.3,38,691.573,768.2,1.276667,16.936794,0.360377,0,0.003333,1.273333,0,0,0,0
3,21092029,3,pedestrian,7.4,7.1,38,371.031,768.6,6.623333,4.950496,0.54648,0.236667,0.143333,0.39,5.853333,0.452944,0.35229,0
3,21092029,3,car,7.6,7.3,38,686.255,768.8,1.373333,19.410107,0.444276,0.036667,0.136667,1.2,0,0,0,0.485437
3,21092029,3,pedestrian,7.6,7.5,38,652.748,769.4,1.943333,3.44305,0.111517,0.066667,0.203333,0.633333,1.04,0,0,0
3,21092029,3,car,7.3,7.1,38,667.65,769.6,1.696667,18.206572,0.514841,0,0.003333,1.693333,0,0,0,0
3,21092029,3,pedestrian,7.6,7.5,38,660.076,771.6,1.856667,3.603766,0.111517,0.143333,0.176667,0.29,1.246667,0,0,0
3,21092029,3,pedestrian,7.5,7.4,38,706.877,774.8,1.13,4.706976,0.088648,0.026667,0.03,0.13,0.943333,0,0,0
3,21092029,3,pedestrian,7.5,7.4,38,712.479,776.6,1.066667,4.986453,0.088648,0.03,0.046667,0.056667,0.933333,0,0,0
3,21092029,3,pedestrian,7.6,7.5,38,660.821,779.8,1.98,3.379155,0.111512,0.003333,0.003333,1.973333,0,0,0,0
3,21092029,3,car,7.1,7.3,38,706.254,781.4,1.25,17.298112,0.360377,0,0.003333,1.246667,0,0,0,1.066667
3,21092029,3,pedestrian,7.6,7.5,38,663.364,781.8,1.973333,3.390706,0.111517,0.203333,0.276667,0.676667,0.816667,0,0,0
3,21092029,3,pedestrian,7.6,7.5,38,661.458,784,2.04,3.279899,0.111517,0.263333,0.206667,0.326667,1.243333,0,0,0
3,21092029,3,pedestrian,7.6,7.5,38,661.854,785.8,2.063333,3.242808,0.111517,0.486667,0.123333,0.29,1.163333,0,0,0
3,21092029,3,pedestrian,7.6,7.5,38,666.416,787.6,2.016667,3.317848,0.111517,0.573333,0.133333,0.153333,1.156667,0,0,0
3,21092029,3,pedestrian,7.1,7.5,38,475.792,789.4,5.226667,4.622001,0.402628,0.56,0.126667,0.23,4.31,0,2.359694,0
3,21092029,3,car,7.3,7.1,38,687.046,790.4,1.72,17.959584,0.514841,0,0.003333,1.716667,0,0,0,0.581395
3,21092029,3,pedestrian,7.1,7.5,38,478.4,791.4,5.213333,4.633822,0.402628,0.543333,0.1,0.13,4.44,0,2.173913,0
3,21092029,3,pedestrian,7.4,7.3,38,318.667,791.6,7.88,4.115099,0.54045,0,0.003333,0,7.876667,0.676819,0.169205,0
3,21092029,3,bike,7.6,7.1,38,713.245,793,1.326667,9.851542,0.217829,0.046667,0.573333,0.04,0.666667,0,0,12.562814
3,21092029,3,pedestrian,7.5,7.3,38,349.358,794,7.41,4.186963,0.51709,0,0.003333,0.016667,7.39,1.034638,0.449843,0
3,21092029,3,pedestrian,7.4,7.5,38,511.546,794,4.706667,4.728567,0.37093,0.05,0.016667,0.01,4.63,0,0,0
3,21092029,3,pedestrian,7.5,7.3,38,375.69,795.8,7,4.432199,0.51709,0.143333,0.146667,0.646667,6.063333,1.095238,0.190476,0
3,21092029,3,pedestrian,7.3,7.5,38,327.264,796,7.81,4.734524,0.616277,0.303333,0.033333,0.053333,7.42,0.810926,4.268032,0
3,21092029,3,car,7.1,7.3,38,713.668,796.2,1.373333,15.744641,0.360377,0,0.003333,1.37,0,0,0,0
3,21092029,3,pedestrian,7.3,7.5,38,341.951,797.8,7.596667,4.867481,0.616277,0.166667,0.09,0.403333,6.936667,1.535761,2.018429,0
3,21092029,3,pedestrian,7.6,7.5,38,715.173,800.2,1.416667,4.723054,0.111517,0.026667,0.006667,0.01,1.373333,0,0,0
3,21092029,3,car,7.1,7.3,38,722.589,802.4,1.33,16.257624,0.360377,0,0.003333,1.326667,0,0,0,0
3,21092029,3,car,7.1,7.3,38,734.91,806.8,1.196667,18.069059,0.360377,0,0.003333,1.193333,0,0,0,0
3,21092029,3,bike,7.1,7.6,38,738.336,808.8,1.173333,11.139033,0.21783,0,0.506667,0.006667,0.66,0,0,0.568182
3,21092029,3,pedestrian,7.1,7.5,38,480.379,811.4,5.516667,4.379029,0.402627,0.023333,0.006667,0.01,5.476667,0,6.586103,0
3,21092029,3,pedestrian,7.1,7.5,38,499.089,813.2,5.233333,4.616113,0.402628,0.053333,0.056667,0.653333,4.47,0,3.184713,0
3,21092029,3,pedestrian,7.3,7.5,38,402.742,814.6,6.863333,5.387562,0.616277,0.2,0.13,0.303333,6.23,1.651287,0.194269,0
3,21092029,3,pedestrian,7.5,7.6,38,754.074,815.4,1.02,6.442716,0.109526,0,0.003333,0,1.016667,0,0,0
3,21092029,3,car,7.1,7.3,38,742.383,817,1.243333,17.390862,0.360377,0,0,1.243333,0,0,0,1.072386
3,21092029,3,bike,7.1,7.5,38,722.636,820.2,1.623333,15.595874,0.421955,0.016667,0.443333,0.003333,1.16,0,0,8.418891
3,21092029,3,pedestrian,7.5,7.1,38,400.741,821,7.003333,4.481751,0.52312,0.006667,0,0.003333,6.993333,1.903855,2.141837,0
3,21092029,3,pedestrian,7.4,7.1,38,427.983,822.8,6.58,4.983097,0.54648,0.456667,0.226667,0.513333,5.383333,1.722391,1.621074,0
3,21092029,3,car,7.1,7.3,38,754.651,825.4,1.176667,18.37618,0.360377,0,0,1.176667,0,0,0,0
3,21092029,3,pedestrian,7.1,7.5,38,524.722,827.8,5.05,4.783695,0.402628,0,0.003333,0,5.046667,0.792079,7.260726,0
3,21092029,3,pedestrian,7.6,7.5,38,749.638,831.8,1.366667,4.895843,0.111516,0,0,0,1.366667,0,0,0
3,21092029,3,pedestrian,7.6,7.5,38,755.094,833.6,1.306667,5.120658,0.111517,0.01,0.01,0.066667,1.22,0,0,0
3,21092029,3,pedestrian,7.6,7.5,38,770.155,835,1.08,6.195364,0.111517,0.016667,0.026667,0.02,1.016667,0,0,0
3,21092029,3,car,7.1,7.6,38,745.455,837,1.523333,14.825239,0.376396,0,1.523333,0,0,0,0,0
3,21092029,3,car,7.3,7.1,38,720.593,840.4,1.996667,15.471023,0.514841,0,0.003333,1.993333,0,0,0,0
3,21092029,3,car,7.1,7.3,38,768.387,847.8,1.323333,16.339519,0.360377,0,0.006667,1.316667,0,0,0,1.007557
3,21092029,3,pedestrian,7.6,7.5,38,771.378,852,1.343333,4.980888,0.111517,0,0,0.003333,1.34,0,0,0
3,21092029,3,pedestrian,7.6,7.5,38,773.09,853.6,1.34,4.993278,0.111517,0.013333,0.013333,0.14,1.173333,0,0,0
3,21092029,3,car,7.1,7.6,38,775.374,856.2,1.346667,16.770134,0.376396,0,0.003333,1.343333,0,0,0,0
3,21092029,3,pedestrian,7.5,7.4,38,779.09,862.2,1.383333,3.844976,0.088648,0.063333,0.08,0.153333,1.086667,0,0.963855,0
3,21092029,3,bike,7.6,7.1,38,794.211,866,1.193333,10.952346,0.21783,0,0.52,0,0.673333,0,0,4.189944
3,21092029,3,car,7.6,7.3,38,745.31,868.2,2.046667,13.024375,0.444276,0.026667,2.02,0,0,0,0,0.651466
3,21092029,3,pedestrian,7.5,7.4,38,799.511,875.4,1.263333,4.210197,0.088648,0,0.003333,0,1.26,0,1.319261,0
3,21092029,3,pedestrian,7.5,7.4,38,800.779,877.6,1.28,4.155377,0.088648,0.033333,0.01,0.256667,0.98,0,1.302083,0
3,21092029,3,pedestrian,7.6,7.4,38,741.425,879.2,2.293333,5.184791,0.198174,0.086667,0.06,0.11,2.036667,0,0.436047,0
3,21092029,3,car,7.1,7.3,38,792.77,882.6,1.496667,14.447192,0.360377,0,1.496667,0,0,0,0,1.113586
3,21092029,3,car,7.1,7.3,38,793.273,883.4,1.5,14.415086,0.360377,0.026667,0.383333,1.09,0,0,0,0.666667
3,21092029,3,pedestrian,7.1,7.5,38,535.14,884.4,5.82,4.150801,0.402628,0,0.003333,0,5.816667,0.171821,4.066438,0
3,21092029,3,pedestrian,7.1,7.5,38,563.268,885.4,5.366667,4.501427,0.402628,0.43,0.29,0.45,4.196667,0.372671,5.341615,0
3,21092029,3,car,7.3,7.1,38,755.532,885.8,2.17,14.235246,0.514841,0,2.17,0,0,0,0,0
3,21092029,3,car,7.3,7.1,38,778.715,886.6,1.796667,17.1932,0.514841,0.003333,0.02,1.773333,0,0,0,0
3,21092029,3,car,7.1,7.5,38,812.715,888.8,1.266667,19.116632,0.403573,0,0,1.266667,0,0,0,0
3,21092029,3,pedestrian,7.5,7.4,38,830.394,895.4,1.083333,4.909738,0.088648,0.013333,0.003333,0,1.066667,0,0,0
3,21092029,3,pedestrian,7.5,7.6,38,817.818,900.2,1.37,4.796767,0.109526,0,0.003333,0,1.366667,0,0,0
3,21092029,3,bike,7.1,7.5,38,763.513,901.4,2.296667,11.023568,0.421958,0.23,0.783333,0.136667,1.146667,0.145138,0,11.61103
3,21092029,3,car,7.1,7.3,38,828.332,906.4,1.3,16.6328,0.360377,0,0.003333,1.296667,0,0,0,0
3,21092029,3,car,7.1,7.3,38,836.807,907,1.166667,18.533692,0.360377,0.006667,0.116667,1.043333,0,0,0,0
3,21092029,3,pedestrian,7.5,7.1,38,445.286,908,7.71,4.070972,0.52312,0,0,0.003333,7.706667,0.821444,0,0
3,21092029,3,car,7.1,7.3,38,847.647,909,1.02,21.198667,0.360377,0,0.003333,1.016667,0,0,0,0.653595
3,21092029,3,pedestrian,7.5,7.1,38,463.835,909.8,7.43,4.224382,0.523119,0.846667,0.536667,1.373333,4.673333,0.8524,0,0
3,21092029,3,pedestrian,7.5,7.6,38,821.986,911,1.483333,4.430262,0.109526,0,0,0.003333,1.48,0,0,0
3,21092029,3,pedestrian,7.5,7.6,38,832.007,912,1.33,4.941031,0.109526,0.033333,0.026667,0.12,1.15,0,0,0
3,21092029,3,pedestrian,7.5,7.6,38,839.218,915.2,1.263333,5.201771,0.109526,0,0.003333,0,1.26,0,0,0
3,21092029,3,pedestrian,7.5,7.4,38,856.434,925,1.14,4.665687,0.088648,0,0,0.003333,1.136667,0.292398,1.754386,0
3,21092029,3,pedestrian,7.5,7.6,38,863.587,928.6,1.083333,6.066065,0.109526,0,0.003333,0,1.08,0,0,0
3,21092029,3,car,7.1,7.3,38,865.442,931.6,1.1,19.65694,0.360377,0,0.003333,1.096667,0,0,0,0.606061
3,21092029,3,pedestrian,7.5,7.4,38,862.846,937.2,1.236667,4.300983,0.088648,0,0,0.006667,1.23,0.808625,1.347709,0
3,21092029,3,pedestrian,7.6,7.5,38,840.142,938.6,1.64,4.079874,0.111517,0,0.003333,0,1.636667,0,0,0
3,21092029,3,car,7.3,7.1,38,820.069,939.6,1.99,15.522856,0.514841,0,0.003333,1.986667,0,0,0,0.670017
3,21092029,3,pedestrian,7.6,7.5,38,850.071,940.4,1.503333,4.450771,0.111517,0.01,0.056667,0.12,1.316667,0,0,0
3,21092029,3,pedestrian,7.6,7.5,38,851.576,941.8,1.503333,4.450771,0.111517,0.123333,0.09,0.096667,1.193333,0,0,0
3,21092029,3,pedestrian,7.3,7.5,38,501.239,944.2,7.38,5.010264,0.616263,0.093333,0.086667,0.093333,7.106667,0.677507,0.63234,0
3,21092029,3,pedestrian,7.6,7.1,38,599.377,949.6,5.836667,4.326682,0.42089,0,0,0.003333,5.833333,0,3.483724,0
3,21092029,3,car,7.5,7.6,38,883.626,954.2,1.173333,13.928664,0.272383,0,1.173333,0,0,0,0,0.568182
3,21092029,3,pedestrian,7.5,7.4,38,872.699,961.4,1.476667,3.601952,0.088648,0,0.003333,1.473333,0,0,1.354402,0
3,21092029,3,pedestrian,7.5,7.4,38,892.299,963.4,1.183333,4.494831,0.088648,0.03,0.026667,0.126667,1,0,1.408451,0
3,21092029,3,pedestrian,7.3,7.4,38,649.406,965,5.256667,5.82064,0.509953,0.113333,0.056667,0.193333,4.893333,1.141408,0,0
3,21092029,3,bike,7.1,7.5,38,809.593,966.2,2.61,9.700177,0.421958,0.12,0.843333,1.646667,0,0,0,4.469987
3,21092029,3,pedestrian,7.4,7.6,38,688.431,966.6,4.633333,3.35931,0.259413,0.83,0.416667,0.65,2.736667,0,0.863309,0
3,21092029,3,pedestrian,7.6,7.5,38,879.515,973,1.556667,4.298281,0.111517,0,0,0.003333,1.553333,0,0,0
3,21092029,3,car,7.3,7.1,38,879.173,973.4,1.57,19.675467,0.514841,0,0.003333,1.566667,0,0,0,0.849257
3,21092029,3,pedestrian,7.6,7.4,38,836.13,975.2,2.316667,5.13257,0.198174,0,0,0.003333,2.313333,0,0,0
3,21092029,3,car,7.1,7.3,38,874.263,981.2,1.78,12.147539,0.360377,0,1.78,0,0,0,0,0
3,21092029,3,car,7.1,7.3,38,878.019,981.4,1.72,12.571303,0.360377,0.296667,0.62,0.803333,0,0,0,0
3,21092029,3,car,7.1,7.3,38,888.725,982,1.553333,13.920155,0.360377,0.27,0.59,0.693333,0,0,0,0
3,21092029,3,car,7.1,7.3,38,897.775,983.2,1.423333,15.19155,0.360377,0.036667,0.103333,1.283333,0,0,0,0.702576
3,21092029,3,bike,7.1,7.5,38,874.922,984.4,1.823333,13.885263,0.421958,0,0.476667,0.003333,1.343333,0,0,2.559415
3,21092029,3,pedestrian,7.1,7.5,38,626.121,986,5.996667,4.02847,0.402623,0,0,0.003333,5.993333,0,2.167871,0
3,21092029,3,pedestrian,7.6,7.5,38,886.358,988,1.693333,3.951374,0.111517,0.066667,0.036667,0.326667,1.263333,0,0,0
3,21092029,3,pedestrian,7.1,7.5,38,648.737,989.2,5.673333,4.258106,0.402628,0.92,0.403333,0.21,4.14,0,7.755582,0
3,21092029,3,pedestrian,7.3,7.5,38,555.698,991.6,7.263333,5.090862,0.616277,0.216667,0.133333,0.12,6.793333,1.835704,4.497476,0
3,21092029,3,pedestrian,7.1,7.5,38,682.88,998.4,5.256667,4.595558,0.402622,0,0.003333,0,5.253333,0,2.029169,0
3,21092029,3,pedestrian,7.1,7.5,38,687.437,1000,5.206667,4.639755,0.402628,0.126667,0.15,0.8,4.13,0,6.466069,0
3,21092029,3,car,7.3,7.1,38,898.696,1004.4,1.76,17.55138,0.51484,0,0.01,1.75,0,0,0,0.94697
3,21092029,3,bike,7.1,7.6,38,877.358,1006.8,2.156667,6.060183,0.21783,0.343333,1.143333,0.67,0,0,0,12.982998
3,21092029,3,pedestrian,7.5,7.3,38,459.084,1007.4,9.136667,3.395702,0.51709,0,0,9.136667,0,0.766144,0,0
3,21092029,3,bike,7.1,7.6,38,890.629,1015.6,2.08,6.283557,0.21783,0.523333,0.91,0.18,0.466667,0,0,15.064103
3,21092029,3,bike,7.1,7.6,38,880.852,1016.2,2.253333,5.800191,0.217829,0.623333,0.946667,0.263333,0.42,0,0,18.195266
3,21092029,3,pedestrian,7.3,7.5,38,557.878,1017.8,7.663333,4.825137,0.616277,0,0,0,7.663333,1.783384,6.655067,0
3,21092029,3,pedestrian,7.6,7.3,38,532.698,1031.8,8.316667,3.655913,0.50675,0,0,8.316667,0,2.244489,0.921844,0
3,21092029,3,pedestrian,7.5,7.1,38,540.261,1034.4,8.233333,3.81221,0.52312,0.193333,0.283333,0.52,7.236667,0.323887,2.105263,0
3,21092029,3,pedestrian,7.5,7.1,38,583.751,1036.4,7.543333,4.160919,0.52312,0.446667,0.173333,0.456667,6.466667,0.48608,2.474591,0
3,21092029,3,pedestrian,7.5,7.1,38,593.811,1038.2,7.403333,4.239603,0.52312,1.1,0.473333,0.643333,5.186667,0.675371,2.251238,0
3,21092029,3,pedestrian,7.3,7.1,38,669.19,1041.8,6.21,4.634253,0.479645,0,0,0,6.21,0.751476,0,0
3,21092029,3,pedestrian,7.3,7.1,38,673.628,1043.8,6.166667,4.666902,0.479654,0.11,0.08,0.55,5.426667,1.027027,0,0
3,21092029,3,pedestrian,7.1,7.6,38,751.474,1045.8,4.903333,3.562202,0.291111,0.613333,0.416667,1.043333,2.83,0,13.188307,0
3,21092029,3,pedestrian,7.1,7.4,38,814.246,1055.4,4.016667,5.798886,0.388203,0,0,0,4.016667,0,0,0
3,21092029,3,pedestrian,7.5,7.1,38,651.049,1084.4,7.22,4.347257,0.52312,0,0,0.003333,7.216667,0.507849,0,0
3,21092029,3,pedestrian,7.5,7.1,38,653.587,1086.2,7.21,4.353287,0.52312,0.453333,0.236667,1.066667,5.453333,0.046232,0,0
3,21092029,3,pedestrian,7.5,7.1,38,704.158,1088,6.396667,4.906805,0.52312,0.486667,0.23,0.21,5.47,0.416884,0,0
3,21092029,3,pedestrian,7.3,7.1,38,722.17,1090.6,6.14,4.687169,0.479654,0.16,0.13,0.186667,5.663333,0.542888,0,0
3,21092029,3,pedestrian,7.4,7.1,38,688.269,1093.2,6.746667,4.859998,0.54648,0.26,0.103333,0.383333,6,0.494071,0.049407,0
3,21092029,3,pedestrian,7.4,7.5,38,660.791,1095,7.236667,3.075409,0.370929,0,0,7.236667,0,0,0.322432,0
3,21092029,3,pedestrian,7.4,7.5,38,709.066,1096.2,6.45,3.450509,0.37093,0.973333,0.56,1.066667,3.85,0,0.620155,0
3,21092029,3,pedestrian,7.4,7.5,38,677.178,1098.2,7.016667,3.171771,0.370921,1.543333,0.503333,1.333333,3.636667,0,0.617577,0
3,21092029,3,pedestrian,7.5,7.3,38,479.327,1100,10.343333,2.999555,0.51709,0,0.003333,10.34,0,0.386723,0,0
3,21092029,3,pedestrian,7.5,7.3,38,679.762,1100.8,7.016667,4.421671,0.51709,0.606667,0.386667,1.23,4.793333,0.475059,0,0
3,21092029,3,pedestrian,7.5,7.3,38,579.711,1102.6,8.713333,3.56068,0.51709,1.29,0.78,2.263333,4.38,0.420811,0.191278,0
3,21092029,3,pedestrian,7.5,7.3,38,571.582,1105.4,8.896667,3.487285,0.517087,1.35,0.79,1.226667,5.53,0.599475,0.187336,0
3,21092029,3,pedestrian,7.5,7.3,38,595.277,1109.2,8.563333,3.623051,0.51709,0.403333,0.3,7.86,0,1.050993,0.194628,0
3,21092029,3,pedestrian,7.6,7.3,38,664.091,1111.6,7.456667,4.077637,0.50676,0.056667,0.053333,0.276667,7.07,2.145731,3.486813,0
3,21092029,3,pedestrian,7.5,7.3,38,728.7,1112.6,6.396667,4.850239,0.517089,0.643333,0.37,0.466667,4.916667,0.781657,0,0
3,21092029,3,pedestrian,7.1,7.3,38,821.012,1115,4.896667,4.311585,0.351873,0.373333,0.266667,0.463333,3.793333,0.272294,0,0
3,21092029,3,pedestrian,7.5,7.3,38,714.154,1116.6,6.706667,4.626053,0.51709,0.813333,0.3,0.606667,4.986667,0.745527,0,0
3,21092029,3,pedestrian,7.1,7.3,38,870,1143.4,4.553333,4.636704,0.351874,0,0.003333,0,4.55,0,0,0
3,21092029,3,pedestrian,7.1,7.3,38,883.863,1144.8,4.346667,4.857139,0.351873,0.126667,0.136667,0.513333,3.57,0,0,0
3,21092029,3,pedestrian,7.5,7.3,38,738.127,1147.6,6.823333,4.546934,0.517087,0.073333,0.016667,0.15,6.583333,0,0.24426,0
3,21092029,3,pedestrian,7.5,7.3,38,749.769,1149.6,6.663333,4.656137,0.51709,0.046667,0.053333,0.39,6.173333,0.350175,0.250125,0
3,21092029,3,pedestrian,7.3,7.4,38,735.6,1158,7.036667,4.348247,0.509953,0,0,0.003333,7.033333,0.757935,0,0
3,21092029,3,pedestrian,7.3,7.4,38,744.076,1160,6.93,4.415174,0.509953,0.163333,0.353333,0.983333,5.43,0.769601,0,0
3,21092029,3,pedestrian,7.3,7.4,38,754.778,1162.2,6.79,4.50621,0.509953,0.07,0.09,0.586667,6.043333,0.785469,0,0
3,21092029,3,pedestrian,7.5,7.1,38,704.538,1163.8,7.653333,4.101105,0.523119,0.243333,0.133333,0.253333,7.023333,0.479094,0,0
3,21092029,3,pedestrian,7.5,7.1,38,743.3,1166,7.043333,4.456299,0.52312,0,0,0.053333,6.99,0.425935,0.189304,0
3,21092029,3,pedestrian,7.5,7.1,38,771.863,1167.8,6.596667,4.758039,0.52312,0.36,0.216667,0.636667,5.383333,0.151592,0.202122,0
3,21092029,3,pedestrian,7.1,7.5,38,694.234,1177.6,8.053333,2.999701,0.402627,0,0,8.053333,0,0,1.945364,0
3,21092029,3,pedestrian,7.1,7.5,38,712.15,1180,7.796667,3.098457,0.402627,0.383333,0.533333,6.88,0,0,13.29628,0
3,21092029,3,pedestrian,7.1,7.5,38,765.963,1182.2,6.936667,3.482603,0.402628,0.533333,0.443333,1.263333,4.696667,0,13.791446,0
3,21092029,3,pedestrian,7.4,7.5,38,819.133,1184.8,6.093333,3.652478,0.370929,0.34,0.236667,0.45,5.066667,0.218818,0.273523,0
3,21092029,3,pedestrian,7.4,7.5,38,880.996,1186.2,5.086667,4.37532,0.37093,0.43,0.196667,0.553333,3.906667,0,0.393185,0
3,21092029,3,pedestrian,7.3,7.5,38,575.649,1190,10.236667,3.612121,0.616268,0.473333,0.233333,9.53,0,1.497883,9.280365,0
3,21092029,3,pedestrian,7.3,7.5,38,803.802,1191,6.45,5.73281,0.616277,0.053333,0.023333,0.073333,6.3,0.568475,0,0
3,21092029,3,pedestrian,7.4,7.5,38,881.263,1194,5.21,4.271746,0.37093,0.266667,0.076667,0.11,4.756667,0,0.703775,0
3,21092029,3,pedestrian,7.4,7.5,38,836.685,1195.8,5.983333,3.71963,0.37093,0.99,0.436667,0.816667,3.74,0.222841,0.278552,0
3,21092029,3,pedestrian,7.1,7.5,38,849.01,1198.2,5.816667,4.153177,0.402627,0.593333,0.146667,0.373333,4.703333,0,2.808023,0
3,21092029,3,pedestrian,7.3,7.4,38,828.278,1201.2,6.213333,4.924436,0.509953,0.2,0.17,0.346667,5.496667,0.429185,0,0
3,21092029,3,pedestrian,7.3,7.4,38,840.128,1225.8,6.426667,4.760969,0.509953,0.076667,0.076667,0.123333,6.15,0.311203,0,0
3,21092029,3,pedestrian,7.5,7.1,38,849.768,1257.4,6.793333,4.620294,0.52312,0.266667,0.066667,0.243333,6.216667,0.245339,0.245339,0
3,21092029,3,pedestrian,7.5,7.1,38,784.936,1259.2,7.903333,3.971387,0.52312,1.116667,0.49,0.84,5.456667,0,0.33741,0
3,21092029,3,pedestrian,7.5,7.1,38,859.955,1279,6.983333,4.494587,0.52312,0.226667,0.03,0.053333,6.673333,0.143198,0.429594,0
3,21092029,3,pedestrian,7.5,7.1,38,891.276,1281,6.493333,4.833757,0.52312,0.2,0.066667,0.286667,5.94,0,0.564682,0
3,21092029,3,pedestrian,7.5,7.3,38,773.694,1322.2,9.14,3.394453,0.517088,0,0,9.14,0,0,0.401167,0
3,21092029,3,pedestrian,7.5,7.3,38,793.206,1323.2,8.83,3.513635,0.51709,1.336667,0.93,2.413333,4.15,0,0.18875,0
3,21092029,3,pedestrian,7.5,7.3,38,847.083,1325,7.963333,3.896031,0.51709,1.366667,0.533333,1.196667,4.866667,0.083717,0.209293,0
3,21092029,3,pedestrian,7.5,7.3,38,774.996,1327.8,9.213333,3.367445,0.51709,1.473333,1.17,1.396667,5.173333,0,0.434153,0
3,21092029,3,pedestrian,7.5,7.3,38,858.87,1329.6,7.843333,3.955638,0.51709,1.246667,0.416667,0.723333,5.456667,0.212495,0.169996,0
3,21092029,3,pedestrian,7.5,7.3,38,786.53,1333.2,9.11,3.405631,0.517088,1.233333,0.763333,0.71,6.403333,0,0.182949,0
3,21092029,3,pedestrian,7.5,7.3,38,838.526,1335,8.273333,3.750047,0.51709,1.143333,0.473333,0.59,6.066667,0.08058,0.20145,0
3,21092029,3,pedestrian,7.4,7.3,38,818.625,1337.4,8.643333,3.751675,0.54045,0.983333,0.543333,0.563333,6.553333,0.077131,0.192827,0
3,21092029,3,pedestrian,7.3,7.5,38,811.11,1356,9.08,4.072254,0.616268,0,0,0.003333,9.076667,0.403818,0,0
3,21092029,3,pedestrian,7.3,7.1,38,889.524,1375.8,8.103333,3.551529,0.479654,0,0,8.103333,0,0.082271,0,0
