run_id,seed,demand_factor,mode,origin_zone,destination_zone,flow_slot,scheduled_spawn_time_s,arrival_time_s,trajectory_duration_min,average_speed_kmh,trajectory_distance_km,congestion_duration_min,low_speed_duration_min,intermediate_speed_duration_min,high_speed_duration_min,copresence_car_percentage,copresence_bike_percentage,copresence_pedestrian_percentage
8,21092034,3,car,7.3,7.1,38,25.988,81.4,0.923333,17.788832,0.27375,0,0.003333,0.92,0,0,0,0
8,21092034,3,car,7.6,7.3,38,3.072,82.2,1.316667,20.245483,0.444276,0,0.003333,1.313333,0,0,0,0
8,21092034,3,bike,7.1,7.6,38,13.988,85,1.183333,11.044901,0.21783,0,0.513333,0.003333,0.666667,0,0,0.84507
8,21092034,3,pedestrian,7.5,7.6,38,14.332,93,1.31,5.016466,0.109526,0,0,0.003333,1.306667,0,0,0
8,21092034,3,pedestrian,7.5,7.4,38,12.85,93.6,1.343333,3.959079,0.088639,0,0,1.343333,0,0,0,0
8,21092034,3,car,7.1,7.3,38,22.705,98.6,1.263333,17.115547,0.360377,0,0.003333,1.26,0,0,0,0
8,21092034,3,bike,7.6,7.1,38,11.88,100.4,1.473333,8.870894,0.21783,0,0.64,0.833333,0,0,0,2.941176
8,21092034,3,bike,7.1,7.6,38,16.224,102.4,1.433333,9.118465,0.21783,0,0.623333,0.81,0,0,0,0.697674
8,21092034,3,car,7.1,7.3,38,30.946,112,1.35,16.016769,0.360377,0,0.003333,1.346667,0,0,0,0
8,21092034,3,car,7.1,7.6,38,53.969,119,1.083333,20.846567,0.376396,0,0.003333,1.08,0,0,0,0
8,21092034,3,pedestrian,7.6,7.5,38,43.98,121,1.283333,5.120705,0.109526,0,0.003333,0,1.28,0,0,0
8,21092034,3,car,7.1,7.6,38,61.088,125.8,1.076667,20.975627,0.376396,0,0.003333,1.073333,0,0,0,0
8,21092034,3,pedestrian,7.5,7.6,38,50.707,133.6,1.38,4.762008,0.109526,0,0,0.003333,1.376667,0,0,0
8,21092034,3,car,7.1,7.3,38,43.354,133.8,1.506667,14.351301,0.360377,0,1.506667,0,0,0,0,0
8,21092034,3,car,7.5,7.3,38,18.64,134.2,1.923333,17.777558,0.569869,0.033333,0.313333,1.576667,0,0,0,0
8,21092034,3,bike,7.1,7.6,38,58,134.6,1.273333,10.264213,0.217829,0,0.553333,0.003333,0.716667,0,0,0
8,21092034,3,bike,7.1,7.6,38,70.625,152.6,1.363333,9.58665,0.21783,0,0.593333,0.77,0,0,0,0.977995
8,21092034,3,car,7.6,7.1,38,102.012,157.4,0.92,19.204718,0.294472,0.006667,0.003333,0.91,0,0,1.449275,0
8,21092034,3,pedestrian,7.6,7.5,38,65.475,160,1.573333,4.176846,0.109526,0,0,0.003333,1.57,0,0,0
8,21092034,3,bike,7.1,7.5,38,18.631,161.8,2.383333,10.622711,0.421958,0.03,0.62,1.733333,0,0.979021,0,5.314685
8,21092034,3,pedestrian,7.5,7.6,38,74.469,166.8,1.536667,4.276508,0.109526,0,0.003333,0,1.533333,0,0,0
8,21092034,3,car,7.1,7.3,38,85.85,169.8,1.396667,15.481604,0.360377,0,0.003333,1.393333,0,0,0,0
8,21092034,3,car,7.1,7.3,38,89.692,170.4,1.343333,16.096258,0.360377,0.03,0.236667,1.076667,0,0,0,0
8,21092034,3,car,7.1,7.3,38,91.494,171.2,1.326667,16.298473,0.360377,0.05,0.196667,1.08,0,0,0,0
8,21092034,3,pedestrian,7.6,7.5,38,100.57,175.6,1.25,5.257257,0.109526,0,0,0.003333,1.246667,0.8,0,0
8,21092034,3,pedestrian,7.6,7.5,38,103.902,177.6,1.226667,5.357231,0.109526,0.003333,0.006667,0.016667,1.2,0.543478,0,0
8,21092034,3,pedestrian,7.5,7.4,38,115.018,177.6,1.04,5.11431,0.088648,0.003333,0.016667,0.066667,0.953333,0,1.923077,0
8,21092034,3,pedestrian,7.5,7.6,38,101.216,178.2,1.28,5.13404,0.109526,0,0,0,1.28,0,0,0
8,21092034,3,bike,7.6,7.1,38,116.535,179.6,1.05,12.447423,0.21783,0,0.456667,0,0.593333,0,0,6.984127
8,21092034,3,pedestrian,7.6,7.5,38,110.006,183,1.213333,5.41613,0.109526,0,0,0.003333,1.21,0,0,0
8,21092034,3,car,7.1,7.3,38,96.928,184,1.45,14.912166,0.360377,0,1.45,0,0,0,0,0
8,21092034,3,pedestrian,7.5,7.4,38,119.596,192.6,1.216667,4.371684,0.088648,0,0.003333,0,1.213333,0,43.287671,0
8,21092034,3,car,7.1,7.6,38,115.709,194.4,1.31,17.239527,0.376396,0,0.003333,1.306667,0,0,0,0.763359
8,21092034,3,pedestrian,7.6,7.5,38,119.36,211.8,1.54,4.267254,0.109526,0,0,0.003333,1.536667,0,0,0
8,21092034,3,car,7.3,7.5,38,101.21,213.2,1.863333,20.056799,0.622875,0,0,1.863333,0,0,0,0
8,21092034,3,pedestrian,7.6,7.5,38,119.511,213.6,1.566667,4.19462,0.109526,0.106667,0.096667,0.25,1.113333,0.638298,0,0
8,21092034,3,bike,7.1,7.6,38,103.976,213.8,1.83,7.141928,0.217829,0,0.796667,1.033333,0,0,0,2.91439
8,21092034,3,pedestrian,7.6,7.5,38,123.664,215.4,1.526667,4.304522,0.109526,0.213333,0.083333,0.156667,1.073333,0.436681,0,0
8,21092034,3,car,7.1,7.3,38,142.141,215.4,1.22,17.723476,0.360377,0,0.003333,1.216667,0,0,0,0
8,21092034,3,bike,7.1,7.6,38,107.34,215.6,1.803333,7.247574,0.21783,0.13,0.806667,0.866667,0,0,0,1.663586
8,21092034,3,pedestrian,7.5,7.4,38,148.119,220.6,1.206667,4.407914,0.088648,0,0,0.003333,1.203333,0,2.762431,0
8,21092034,3,pedestrian,7.5,7.4,38,148.562,222.2,1.226667,4.336046,0.088648,0.14,0.053333,0.136667,0.896667,0,3.532609,0
8,21092034,3,pedestrian,7.5,7.4,38,157.717,223.8,1.1,4.835348,0.088648,0.1,0.083333,0.076667,0.84,0,1.515152,0
8,21092034,3,car,7.3,7.1,38,156.419,228.2,1.193333,13.76399,0.27375,0,1.193333,0,0,0,0,0.27933
8,21092034,3,pedestrian,7.4,7.6,38,35.737,234.8,3.316667,4.692905,0.259413,0,0.003333,0,3.313333,0,0.80402,0
8,21092034,3,car,7.1,7.3,38,153.492,235.6,1.366667,15.821444,0.360377,0,0.003333,1.363333,0,0,0,0
8,21092034,3,car,7.1,7.3,38,155.017,236,1.346667,16.056416,0.360377,0.08,0.273333,0.993333,0,0,0,0
8,21092034,3,car,7.3,7.1,38,168.787,242.6,1.23,13.353682,0.27375,0,1.23,0,0,0,0,1.084011
8,21092034,3,bike,7.1,7.6,38,165.366,248.8,1.39,9.402733,0.21783,0,0.603333,0.786667,0,0,0,2.63789
8,21092034,3,bike,7.1,7.6,38,170.287,249.6,1.32,9.901363,0.21783,0.013333,0.57,0.23,0.506667,0,0,2.777778
8,21092034,3,bike,7.1,7.5,38,123.047,254,2.18,11.613514,0.421958,0.243333,0.59,0.326667,1.02,0.152905,0,5.045872
8,21092034,3,bike,7.1,7.6,38,176.022,259.2,1.383333,9.448048,0.21783,0.003333,0.6,0.78,0,0,0,7.46988
8,21092034,3,pedestrian,7.5,7.6,38,192.609,261.4,1.143333,5.74773,0.109526,0,0,0.003333,1.14,0.291545,0,0
8,21092034,3,pedestrian,7.6,7.5,38,176.31,269,1.543333,4.258022,0.109526,0,0,0.003333,1.54,0,0,0
8,21092034,3,car,7.1,7.6,38,195.309,270,1.243333,18.163899,0.376396,0,0.003333,1.24,0,0,0,0
8,21092034,3,pedestrian,7.5,7.6,38,202.463,277,1.24,5.299654,0.109526,0,0,0.003333,1.236667,1.075269,0,0
8,21092034,3,pedestrian,7.5,7.6,38,208.149,278.2,1.166667,5.632765,0.109526,0.003333,0.006667,0.07,1.086667,0,0,0
8,21092034,3,car,7.1,7.3,38,206.627,284.8,1.3,16.632767,0.360377,0,0.003333,1.296667,0,0,0,1.025641
8,21092034,3,bike,7.5,7.1,38,127.434,288.2,2.676667,9.458579,0.421958,0.19,0.943333,0.2,1.343333,0,0,4.856787
8,21092034,3,pedestrian,7.4,7.5,38,9.127,293.8,4.743333,4.666839,0.36894,0,0,0.003333,4.74,0.632467,0,0
8,21092034,3,bike,7.6,7.1,38,233.116,298.4,1.086667,12.027423,0.21783,0.056667,0.466667,0.036667,0.526667,0,0,7.97546
8,21092034,3,car,7.1,7.6,38,215.476,299.8,1.403333,16.092956,0.376396,0,0.01,1.393333,0,0,0,1.187648
8,21092034,3,pedestrian,7.6,7.5,38,224.687,301.6,1.28,5.13404,0.109526,0,0.003333,0,1.276667,0,0,0
8,21092034,3,pedestrian,7.6,7.5,38,231.051,303.2,1.2,5.476307,0.109526,0.02,0.02,0.06,1.1,0,0,0
8,21092034,3,car,7.1,7.6,38,237.459,307.8,1.17,19.302377,0.376396,0,0.003333,1.166667,0,0,0,0
8,21092034,3,car,7.5,7.1,38,191.015,308.4,1.953333,12.903044,0.420066,0,1.953333,0,0,0,0,0
8,21092034,3,car,7.3,7.1,38,245.348,309,1.06,15.49531,0.27375,0.06,0.096667,0.903333,0,0,0,1.886792
8,21092034,3,car,7.1,7.3,38,240.635,310.8,1.166667,18.533688,0.360377,0.016667,0.013333,1.136667,0,0,0,0
8,21092034,3,car,7.3,7.1,38,237.323,311,1.226667,13.389891,0.273749,0.07,1.156667,0,0,0,0,1.086957
8,21092034,3,pedestrian,7.1,7.3,38,74.572,311.8,3.953333,5.310044,0.349873,0.053333,0.03,0.196667,3.673333,0.674536,1.770658,0
8,21092034,3,car,7.1,7.6,38,239.927,315,1.25,18.067025,0.376396,0,0.003333,1.246667,0,0,0,0
8,21092034,3,bike,7.1,7.6,38,207.208,317.2,1.83,7.141967,0.21783,0.143333,0.93,0.756667,0,0,0,6.010929
8,21092034,3,pedestrian,7.6,7.1,38,51.191,321.6,4.506667,5.603565,0.42089,0,0,0,4.506667,0,5.769231,0
8,21092034,3,pedestrian,7.5,7.4,38,258.614,323,1.07,4.970919,0.088648,0,0,0.003333,1.066667,0,0,0
8,21092034,3,pedestrian,7.6,7.4,38,204.329,324.4,2,5.944919,0.198164,0.086667,0.086667,0.056667,1.77,0,0,0
8,21092034,3,pedestrian,7.5,7.6,38,260.023,326.8,1.11,5.920334,0.109526,0,0.003333,0,1.106667,0,0,0
8,21092034,3,car,7.1,7.6,38,253.923,328.4,1.24,18.212727,0.376396,0.01,0.023333,1.206667,0,0,0,0
8,21092034,3,car,7.1,7.3,38,251.518,333,1.356667,15.938064,0.360377,0,0.003333,1.353333,0,0,0,1.228501
8,21092034,3,car,7.1,7.3,38,260.573,333.4,1.213333,17.820858,0.360377,0.026667,0.153333,1.033333,0,0,0,0
8,21092034,3,bike,7.1,7.6,38,246.363,334.4,1.466667,8.911227,0.21783,0.07,0.713333,0.063333,0.62,0,0,4.545455
8,21092034,3,bike,7.6,7.1,38,265.974,339.6,1.226667,10.654728,0.21783,0.003333,0.53,0.01,0.683333,0,0,4.891304
8,21092034,3,car,7.3,7.1,38,284.567,341.2,0.943333,17.411691,0.27375,0,0.003333,0.94,0,0,0,0
8,21092034,3,pedestrian,7.1,7.6,38,106.328,345,3.976667,4.392288,0.291111,0.366667,0.126667,0.346667,3.136667,0,14.24979,0
8,21092034,3,car,7.3,7.6,38,222.578,346.2,2.06,17.350415,0.595698,0,0.023333,2.036667,0,0,0,0
8,21092034,3,pedestrian,7.1,7.6,38,151.083,346.8,3.26,5.357873,0.291111,0.233333,0.056667,0.13,2.84,0,26.278119,0
8,21092034,3,pedestrian,7.5,7.4,38,280.129,347.2,1.116667,4.763179,0.088648,0,0,0,1.116667,0,0,0
8,21092034,3,pedestrian,7.6,7.5,38,263.012,348,1.413333,4.649696,0.109526,0,0,0.003333,1.41,0,0,0
8,21092034,3,pedestrian,7.3,7.1,38,16.214,348.6,5.536667,5.197934,0.479654,0.17,0.09,0.503333,4.773333,0.301023,0.120409,0
8,21092034,3,car,7.1,7.3,38,264.495,351.2,1.443333,14.981044,0.360377,0,0.003333,1.44,0,0,0,0
8,21092034,3,car,7.1,7.3,38,268.623,351.6,1.38,15.66858,0.360377,0.086667,0.21,1.083333,0,0,0,0
8,21092034,3,car,7.5,7.3,38,232.538,352.2,1.993333,17.153267,0.56987,0.126667,0.2,1.666667,0,0,0,0
8,21092034,3,car,7.1,7.3,38,279.567,353,1.223333,17.675183,0.360377,0.03,0.113333,1.08,0,0,0,0
8,21092034,3,pedestrian,7.1,7.4,38,64.788,363.6,4.98,4.677147,0.388203,0.013333,0.003333,0.003333,4.96,0.334672,1.807229,0
8,21092034,3,pedestrian,7.6,7.5,38,276.537,364.4,1.463333,4.490823,0.109526,0,0.003333,0,1.46,0.455581,0,0
8,21092034,3,bike,7.6,7.1,38,291.75,364.8,1.216667,10.742301,0.21783,0,0.53,0,0.686667,0,0,8.767123
8,21092034,3,pedestrian,7.1,7.4,38,70.51,367.8,4.953333,4.702327,0.388203,0,0,0.003333,4.95,0,1.749664,0
8,21092034,3,bike,7.1,7.6,38,293.364,372.2,1.313333,9.951624,0.21783,0.07,0.66,0.07,0.513333,0,0,3.045685
8,21092034,3,pedestrian,7.4,7.6,38,142.061,372.6,3.84,4.053334,0.259413,0,0.003333,0,3.836667,0.173611,0.434028,0
8,21092034,3,bike,7.1,7.6,38,279.985,373.2,1.553333,8.414034,0.21783,0.13,0.733333,0.073333,0.616667,0,0,3.218884
8,21092034,3,pedestrian,7.5,7.4,38,304.801,373.6,1.143333,4.652084,0.088648,0.086667,0.043333,0.263333,0.75,0,0,0
8,21092034,3,pedestrian,7.3,7.6,38,56.966,377.4,5.34,5.671468,0.504761,0.01,0,0.003333,5.326667,0.187266,6.054931,0
8,21092034,3,car,7.3,7.6,38,268.08,377.4,1.82,19.638386,0.595698,0,0,1.82,0,0,0,0
8,21092034,3,car,7.1,7.3,38,286.974,381.2,1.57,13.772382,0.360377,0,1.57,0,0,0,0,0
8,21092034,3,car,7.1,7.3,38,290.022,381.8,1.526667,14.163302,0.360377,0.076667,0.513333,0.936667,0,0,0,0
8,21092034,3,car,7.1,7.3,38,295.016,382.4,1.453333,14.877955,0.360377,0.13,0.373333,0.95,0,0,0,0
8,21092034,3,car,7.3,7.1,38,327.301,384.2,0.946667,17.350382,0.27375,0.026667,0.05,0.87,0,0,0,2.112676
8,21092034,3,car,7.1,7.3,38,308.619,388.8,1.333333,16.216959,0.360377,0,0.003333,1.33,0,0,0,0
8,21092034,3,car,7.1,7.3,38,320.701,389.4,1.143333,18.91193,0.360377,0.006667,0.053333,1.083333,0,0,0,0
8,21092034,3,pedestrian,7.5,7.4,38,324.032,393,1.146667,4.638561,0.088648,0.033333,0.036667,0.083333,0.993333,0.290698,0,0
8,21092034,3,pedestrian,7.5,7.6,38,339.283,402,1.043333,6.298628,0.109526,0,0,0,1.043333,0,0,0
8,21092034,3,pedestrian,7.5,7.3,38,32.814,403.2,6.17,5.008984,0.515091,0.003333,0,0.043333,6.123333,0.432199,0,0
8,21092034,3,pedestrian,7.3,7.4,38,15.464,409.4,6.563333,4.661833,0.509953,0,0,0,6.563333,0.812595,0,0
8,21092034,3,pedestrian,7.6,7.5,38,331.326,410.8,1.323333,4.965905,0.109526,0,0,0.003333,1.32,0,0,0
8,21092034,3,pedestrian,7.1,7.4,38,150.374,411.2,4.346667,5.358634,0.388203,0.02,0.056667,0.153333,4.116667,0,1.533742,0
8,21092034,3,pedestrian,7.5,7.4,38,353.24,413.2,0.996667,5.336672,0.088648,0.006667,0.023333,0.016667,0.95,0,0,0
8,21092034,3,car,7.5,7.1,38,349.596,414,1.073333,23.481957,0.420066,0,0.003333,1.07,0,0,0,0
8,21092034,3,car,7.3,7.1,38,365.227,417,0.86,19.098785,0.273749,0.013333,0.006667,0.84,0,0,0,0
8,21092034,3,pedestrian,7.5,7.3,38,48.18,420.8,6.21,4.97672,0.515091,0,0.003333,0,6.206667,0.751476,0,0
8,21092034,3,car,7.1,7.3,38,328.649,421.8,1.55,13.950087,0.360377,0,1.55,0,0,0,0,0
8,21092034,3,pedestrian,7.5,7.3,38,52.256,422.6,6.17,5.008984,0.515091,0.086667,0.043333,0.316667,5.723333,0.972447,0,0
8,21092034,3,pedestrian,7.5,7.3,38,88.55,424.4,5.596667,5.522114,0.515091,0.02,0.03,0.103333,5.443333,0.536033,0.357356,0
8,21092034,3,pedestrian,7.5,7.1,38,2.82,430,7.116667,4.410379,0.52312,0,0,0.003333,7.113333,0.88993,0.702576,0
8,21092034,3,pedestrian,7.5,7.1,38,68.642,431.6,6.046667,5.190825,0.52312,0.296667,0.246667,0.41,5.093333,0.551268,0.441014,0
8,21092034,3,car,7.1,7.3,38,331.726,435.8,1.733333,12.4746,0.360377,0,1.733333,0,0,0,0,0.769231
8,21092034,3,car,7.1,7.3,38,351.501,436.2,1.41,15.335206,0.360377,0.063333,0.366667,0.98,0,0,0,0
8,21092034,3,pedestrian,7.1,7.5,38,90.152,438.4,5.803333,4.142143,0.400637,0,0.003333,0.003333,5.796667,0,4.192993,0
8,21092034,3,pedestrian,7.1,7.4,38,186.545,440,4.223333,5.515121,0.388203,0,0,0,4.223333,0.947119,0,0
8,21092034,3,pedestrian,7.6,7.5,38,343.773,440,1.603333,4.098693,0.109526,0.166667,0.123333,0.153333,1.16,0,0,0
8,21092034,3,pedestrian,7.1,7.5,38,165.262,442,4.61,5.214363,0.400637,0.156667,0.1,0.11,4.243333,0,1.373825,0
8,21092034,3,pedestrian,7.3,7.5,38,55.865,443.6,6.46,5.70545,0.614287,0.43,0.1,0.203333,5.726667,1.341589,0.567595,0
8,21092034,3,bike,7.6,7.1,38,357.928,448.6,1.51,8.655496,0.21783,0,0.656667,0.853333,0,0,0,0.883002
8,21092034,3,pedestrian,7.1,7.3,38,213.682,448.8,3.916667,5.359777,0.349874,0,0.003333,0,3.913333,0.851064,0.425532,0
8,21092034,3,car,7.1,7.3,38,362.813,450.2,1.453333,14.877964,0.360377,0,1.453333,0,0,0,0,0
8,21092034,3,pedestrian,7.1,7.6,38,239.599,451.4,3.53,4.948061,0.291111,0,0,0.003333,3.526667,0,4.34372,0
8,21092034,3,car,7.3,7.6,38,319.971,458.8,2.313333,15.450373,0.595698,0,0.003333,2.31,0,0,0,0
8,21092034,3,car,7.3,7.1,38,415.136,460.2,0.75,21.900038,0.27375,0,0.003333,0.746667,0,0,0,0
8,21092034,3,pedestrian,7.5,7.4,38,402.713,461.2,0.973333,5.464606,0.088648,0.066667,0.006667,0.073333,0.826667,0,0,0
8,21092034,3,pedestrian,7.6,7.1,38,122.195,461.4,5.653333,4.466993,0.42089,0,0,0.003333,5.65,0,3.714623,0
8,21092034,3,bike,7.1,7.6,38,382.36,461.6,1.32,9.901363,0.21783,0.153333,0.636667,0.103333,0.426667,0,0,9.59596
8,21092034,3,car,7.1,7.3,38,406.825,466.8,0.996667,21.694942,0.360377,0,0.003333,0.993333,0,0,0,0
8,21092034,3,pedestrian,7.1,7.5,38,191.997,470.8,4.646667,5.173222,0.400637,0,0,0.003333,4.643333,0,9.971306,0
8,21092034,3,pedestrian,7.5,7.6,38,369.553,473.2,1.726667,3.805928,0.109526,0,0,1.726667,0,0,0,0
8,21092034,3,bike,7.1,7.6,38,395.844,476.6,1.343333,9.729379,0.21783,0.09,0.626667,0.08,0.546667,0,0,5.707196
8,21092034,3,pedestrian,7.3,7.6,38,109.575,486.2,6.276667,4.825115,0.504761,0.216667,0.273333,0.866667,4.92,4.089219,7.647371,0
8,21092034,3,car,7.3,7.1,38,440.362,494.4,0.9,18.250032,0.27375,0,0.003333,0.896667,0,0,0,0
8,21092034,3,car,7.1,7.3,38,429.844,496.4,1.106667,19.538531,0.360377,0,0.003333,1.103333,0,0,0,0
8,21092034,3,pedestrian,7.6,7.5,38,410.347,497.2,1.446667,4.54256,0.109526,0,0,0.003333,1.443333,0,0,0
8,21092034,3,bike,7.1,7.6,38,415.387,500.2,1.413333,9.247499,0.21783,0.216667,0.636667,0.203333,0.356667,0,0,4.95283
8,21092034,3,bike,7.1,7.6,38,403.432,501.2,1.626667,8.034713,0.21783,0.183333,0.726667,0.716667,0,0,0,3.688525
8,21092034,3,pedestrian,7.5,7.4,38,444.691,512.8,1.133333,4.693132,0.088648,0,0,0,1.133333,0,0,0
8,21092034,3,pedestrian,7.6,7.4,38,360.01,514.4,2.57,4.626636,0.198174,0.29,0.19,0.2,1.89,0,0,0
8,21092034,3,pedestrian,7.5,7.1,38,111.631,516.8,6.75,4.649954,0.52312,0,0.003333,0,6.746667,0,5.08642,0
8,21092034,3,pedestrian,7.5,7.1,38,137.144,518.2,6.35,4.94281,0.523114,0.223333,0.253333,0.61,5.263333,0.314961,1.469816,0
8,21092034,3,car,7.1,7.6,38,451.257,519.2,1.13,19.985646,0.376396,0,0.003333,1.126667,0,0,0,0.884956
8,21092034,3,pedestrian,7.3,7.1,38,188.848,520.2,5.52,5.213628,0.479654,0.246667,0.146667,0.163333,4.963333,1.871981,0.543478,0
8,21092034,3,pedestrian,7.3,7.6,38,155.679,520.6,6.08,4.981191,0.504761,0.436667,0.293333,0.353333,4.996667,2.357456,13.486842,0
8,21092034,3,pedestrian,7.6,7.4,38,364.63,521,2.603333,4.567396,0.198174,0,0,0.003333,2.6,0,0,0
8,21092034,3,pedestrian,7.5,7.1,38,209.417,521.8,5.203333,6.032133,0.52312,0,0.01,0.003333,5.19,0.576553,1.72966,0
8,21092034,3,pedestrian,7.5,7.4,38,465.934,522.8,0.946667,5.618538,0.088648,0.006667,0.006667,0.026667,0.906667,0,0,0
8,21092034,3,pedestrian,7.4,7.5,38,175.47,525.6,5.833333,3.794783,0.368937,0.003333,0,5.83,0,0.342857,0.285714,0
8,21092034,3,car,7.3,7.6,38,430.14,526.8,1.61,22.199915,0.595698,0,0.003333,1.606667,0,0,0,0
8,21092034,3,pedestrian,7.6,7.5,38,456.017,527.2,1.183333,5.553428,0.109526,0,0,0.01,1.173333,0,0,0
8,21092034,3,car,7.1,7.3,38,467.507,533,1.09,19.837285,0.360377,0,0.003333,1.086667,0,0,0,0
8,21092034,3,bike,7.6,7.1,38,453.841,535,1.35,9.681333,0.21783,0,0.586667,0.763333,0,0,0,11.358025
8,21092034,3,pedestrian,7.1,7.5,38,248.113,538.2,4.833333,4.973428,0.400637,0,0,0.003333,4.83,0,3.172414,0
8,21092034,3,car,7.3,7.1,38,493.119,545,0.863333,19.025127,0.27375,0,0.003333,0.86,0,0,0,0
8,21092034,3,pedestrian,7.5,7.4,38,482.28,547.6,1.086667,4.894677,0.088648,0,0,0.003333,1.083333,0,0,0
8,21092034,3,pedestrian,7.6,7.3,38,192.474,563.2,6.176667,4.903233,0.504761,0,0.003333,0,6.173333,2.590394,3.453859,0
8,21092034,3,pedestrian,7.5,7.6,38,493.113,566.4,1.22,5.386533,0.109526,0,0,0.003333,1.216667,0,0,0
8,21092034,3,car,7.3,7.6,38,463.32,569.2,1.763333,20.269487,0.595698,0,0,1.763333,0,0,0,0
8,21092034,3,car,7.1,7.3,38,491.821,571.6,1.326667,16.298449,0.360377,0,0.003333,1.323333,0,0,0,1.005025
8,21092034,3,pedestrian,7.5,7.6,38,493.561,573.4,1.33,4.941031,0.109526,0.023333,0,0.006667,1.3,0,0,0
8,21092034,3,car,7.3,7.1,38,513.288,574.6,1.02,16.102969,0.27375,0,0.003333,1.016667,0,0,0,2.941176
8,21092034,3,pedestrian,7.4,7.5,38,214.961,575.4,6.006667,3.685301,0.36894,0.016667,0.01,5.98,0,0,0,0
8,21092034,3,car,7.3,7.1,38,527.315,578.6,0.853333,19.24808,0.27375,0,0,0.853333,0,0,0,1.5625
8,21092034,3,car,7.1,7.6,38,510.571,582.6,1.2,18.819817,0.376396,0,0.003333,1.196667,0,0,0,1.111111
8,21092034,3,pedestrian,7.4,7.3,38,202.597,585.2,6.376667,5.066444,0.53845,0.026667,0.023333,0.063333,6.263333,0.418191,0,0
8,21092034,3,bike,7.6,7.1,38,501.811,585.8,1.396667,9.357851,0.21783,0,0.606667,0.79,0,0,0,7.875895
8,21092034,3,bike,7.1,7.6,38,532.121,586,0.896667,14.575984,0.21783,0,0.386667,0.003333,0.506667,0,0,8.550186
8,21092034,3,pedestrian,7.5,7.4,38,526.718,591.8,1.083333,4.909738,0.088648,0,0,0.003333,1.08,0.615385,0,0
8,21092034,3,pedestrian,7.6,7.5,38,480.589,593.6,1.883333,3.48933,0.109526,0,0.003333,1.88,0,0,0,0
8,21092034,3,pedestrian,7.3,7.5,38,100.323,595.6,8.253333,4.465733,0.614286,0.136667,0.103333,0.696667,7.316667,3.069467,0.282714,0
8,21092034,3,pedestrian,7.4,7.5,38,309.048,597.6,4.806667,4.605347,0.368939,0.353333,0.153333,0.39,3.91,0,0,0
8,21092034,3,pedestrian,7.6,7.5,38,501.275,599.8,1.64,4.007055,0.109526,0.18,0.063333,0.11,1.286667,0,0,0
8,21092034,3,pedestrian,7.6,7.5,38,534.127,605.4,1.186667,5.537841,0.109526,0,0,0.003333,1.183333,0,0,0
8,21092034,3,pedestrian,7.3,7.4,38,118,609.6,8.193333,3.734397,0.509953,0,0,8.193333,0,1.017087,0,0
8,21092034,3,pedestrian,7.3,7.4,38,120.675,611.2,8.173333,3.743534,0.509953,1.42,0.866667,2.273333,3.613333,0.978793,0,0
8,21092034,3,pedestrian,7.3,7.4,38,123.155,613,8.163333,3.748121,0.509953,1.563333,0.84,1.763333,3.996667,0.898326,0,0
8,21092034,3,pedestrian,7.6,7.5,38,534.372,622.4,1.466667,4.480616,0.109526,0.016667,0.003333,0,1.446667,0,0,0
8,21092034,3,car,7.1,7.3,38,536.746,624,1.453333,14.877955,0.360377,0,1.453333,0,0,0,0,0
8,21092034,3,pedestrian,7.6,7.5,38,541.248,624,1.376667,4.773538,0.109526,0.086667,0.076667,0.156667,1.056667,0,0,0
8,21092034,3,car,7.1,7.3,38,547.689,624.2,1.273333,16.981131,0.360377,0.116667,0.456667,0.7,0,0,0,0
8,21092034,3,car,7.1,7.3,38,548.597,625,1.273333,16.981119,0.360377,0.093333,0.2,0.98,0,0,0,0
8,21092034,3,car,7.1,7.6,38,532.163,625.2,1.55,14.570181,0.376396,0,1.55,0,0,0,0,0
8,21092034,3,car,7.1,7.6,38,542.951,625.8,1.38,16.365059,0.376396,0.033333,0.333333,1.013333,0,0,0,0
8,21092034,3,pedestrian,7.5,7.4,38,566.505,626.4,0.996667,5.336672,0.088648,0.01,0.003333,0.016667,0.966667,0,0,0
8,21092034,3,pedestrian,7.6,7.5,38,551.278,626.8,1.256667,5.229367,0.109526,0,0,0.003333,1.253333,0,0,0
8,21092034,3,car,7.1,7.3,38,571.627,637.2,1.09,19.837285,0.360377,0,0.003333,1.086667,0,0,0,0
8,21092034,3,car,7.5,7.1,38,553.104,641.6,1.473333,17.106777,0.420066,0.063333,0.02,1.39,0,0,0,0
8,21092034,3,car,7.6,7.3,38,563.08,645.4,1.37,19.457339,0.444276,0,0.003333,1.366667,0,0,0,0.729927
8,21092034,3,car,7.3,7.1,38,589.057,646.6,0.956667,17.169019,0.27375,0,0.003333,0.953333,0,0,0,0
8,21092034,3,bike,7.6,7.1,38,556.926,655.2,1.636667,7.985621,0.21783,0.146667,0.793333,0.136667,0.56,0,0,7.942974
8,21092034,3,bike,7.6,7.1,38,565.847,659.4,1.556667,8.396017,0.21783,0.12,0.68,0.756667,0,0,0,6.20985
8,21092034,3,pedestrian,7.1,7.5,38,272.946,667,6.566667,3.660645,0.400637,0,0.003333,6.563333,0,0.253807,3.705584,0
8,21092034,3,pedestrian,7.1,7.5,38,315.311,669.4,5.9,4.074277,0.400637,0.013333,0.04,0.466667,5.38,1.016949,2.824859,0
8,21092034,3,pedestrian,7.1,7.5,38,323.705,671.2,5.79,4.151682,0.400637,0.506667,0.443333,0.593333,4.246667,0.921128,2.590674,0
8,21092034,3,pedestrian,7.5,7.4,38,594.203,673.4,1.316667,4.039658,0.088648,0,0.003333,0,1.313333,0,0,0
8,21092034,3,pedestrian,7.1,7.4,38,392.782,675.4,4.71,4.945264,0.388203,0,0.003333,0.013333,4.693333,0.283086,0,0
8,21092034,3,car,7.1,7.6,38,577.925,680,1.7,13.284577,0.376396,0,1.7,0,0,0,0,0.980392
8,21092034,3,pedestrian,7.6,7.4,38,507.232,682.4,2.916667,4.076726,0.198174,0.036667,0.01,0.013333,2.856667,0,0,0
8,21092034,3,pedestrian,7.5,7.4,38,610.317,684.4,1.233333,4.312608,0.088648,0.07,0.08,0.113333,0.97,0,0,0
8,21092034,3,pedestrian,7.5,7.4,38,612.373,691.2,1.313333,4.049911,0.088648,0,0.003333,0,1.31,0,0,0
8,21092034,3,pedestrian,7.5,7.6,38,596.186,691.8,1.593333,4.124417,0.109526,0,0,0.003333,1.59,0,0,0
8,21092034,3,pedestrian,7.5,7.4,38,612.661,692.8,1.333333,3.989162,0.088648,0.18,0.073333,0.14,0.94,0,0,0
8,21092034,3,car,7.1,7.3,38,580.561,694.6,1.9,11.380336,0.360377,0,1.9,0,0,0,0,0
8,21092034,3,car,7.1,7.3,38,583.97,694.8,1.846667,11.709011,0.360377,0.353333,0.846667,0.646667,0,0,0,0
8,21092034,3,car,7.1,7.3,38,587.536,696,1.806667,11.968248,0.360377,0.19,0.413333,1.203333,0,0,0,0
8,21092034,3,pedestrian,7.3,7.4,38,299.527,696.6,6.616667,4.624256,0.509953,0,0,0.003333,6.613333,0.151134,0,0
8,21092034,3,car,7.1,7.3,38,594.776,696.6,1.696667,12.744189,0.360377,0.246667,0.38,1.07,0,0,0,0.392927
8,21092034,3,car,7.1,7.3,38,609.819,697.6,1.46,14.810028,0.360377,0.036667,0.073333,1.35,0,0,0,2.283105
8,21092034,3,pedestrian,7.1,7.4,38,413.035,698.2,4.75,4.90362,0.388203,0.433333,0.21,0.413333,3.693333,0,0.421053,0
8,21092034,3,car,7.1,7.3,38,630.625,699.4,1.143333,18.911902,0.360377,0,0.003333,1.14,0,0,0,0
8,21092034,3,pedestrian,7.3,7.4,38,357.63,700,5.703333,5.364786,0.509953,0.236667,0.17,0.236667,5.06,0.584454,0.993571,0
8,21092034,3,pedestrian,7.5,7.3,38,226.712,700.4,7.893333,3.915384,0.515091,0,0.003333,7.89,0,0.380068,0.211149,0
8,21092034,3,car,7.1,7.3,38,645.301,701.4,0.933333,23.167111,0.360377,0,0.003333,0.93,0,0,0,1.071429
8,21092034,3,pedestrian,7.4,7.5,38,428.399,701.6,4.553333,4.861575,0.36894,0,0,0.003333,4.55,0,0,0
8,21092034,3,pedestrian,7.5,7.3,38,276.337,702.4,7.1,4.352878,0.515091,0.263333,0.376667,1.613333,4.846667,0.704225,0,0
8,21092034,3,pedestrian,7.4,7.5,38,429.015,703.4,4.57,4.843845,0.36894,0.106667,0.106667,0.4,3.956667,0.510576,0,0
8,21092034,3,pedestrian,7.1,7.3,38,460.21,708.6,4.136667,5.074737,0.349875,0,0,0.003333,4.133333,1.128122,0,0
8,21092034,3,pedestrian,7.5,7.6,38,644.832,712.2,1.12,5.867474,0.109526,0,0,0,1.12,0,0,0
8,21092034,3,pedestrian,7.6,7.1,38,408.694,713.8,5.083333,4.967866,0.420889,0,0.003333,0,5.08,0,3.081967,0
8,21092034,3,pedestrian,7.1,7.3,38,473.227,722.4,4.15,5.058433,0.349875,0,0,0.003333,4.146667,0.321285,0,0
8,21092034,3,pedestrian,7.3,7.5,38,358.953,727.6,6.143333,5.999546,0.614287,0.033333,0.006667,0.013333,6.09,0.922409,0.81389,0
8,21092034,3,bike,7.1,7.6,38,626.102,729.8,1.726667,7.569382,0.21783,0.096667,0.843333,0.786667,0,0,0,1.930502
8,21092034,3,bike,7.1,7.6,38,639.239,730.4,1.516667,8.61745,0.21783,0.233333,0.653333,0.193333,0.436667,0,0,0.21978
8,21092034,3,bike,7.1,7.6,38,662.585,732,1.156667,11.299538,0.21783,0.013333,0.493333,0.023333,0.626667,0,0,0
8,21092034,3,bike,7.1,7.6,38,681.627,742,1.003333,13.026378,0.21783,0,0.436667,0.003333,0.563333,0,0,1.993355
8,21092034,3,pedestrian,7.5,7.1,38,280.275,742.8,7.706667,4.072733,0.52312,0.026667,0.003333,0.006667,7.67,0.951557,1.297578,0
8,21092034,3,car,7.1,7.3,38,657.168,743,1.43,15.120705,0.360377,0,0.003333,1.426667,0,0,0,0
8,21092034,3,pedestrian,7.5,7.1,38,290.346,745.2,7.58,4.140791,0.52312,0.033333,0.01,0.29,7.246667,1.71504,1.583113,0
8,21092034,3,pedestrian,7.5,7.1,38,312.896,747,7.233333,4.339244,0.52312,0.583333,0.503333,0.87,5.276667,0.414747,0,0
8,21092034,3,pedestrian,7.5,7.1,38,311.701,748.8,7.283333,4.309455,0.52312,0.726667,0.466667,1.406667,4.683333,0.732265,0,0
8,21092034,3,pedestrian,7.5,7.1,38,353.219,750.8,6.623333,4.738882,0.52312,0.576667,0.146667,0.323333,5.576667,0,0.503271,0
8,21092034,3,pedestrian,7.5,7.1,38,338.629,752.8,6.9,4.548869,0.52312,0.636667,0.28,0.433333,5.55,0.917874,0,0
8,21092034,3,pedestrian,7.5,7.1,38,324.044,754.4,7.17,4.377494,0.523111,0.946667,0.36,0.483333,5.38,0.97629,0.04649,0
8,21092034,3,pedestrian,7.5,7.6,38,672.587,754.4,1.363333,4.820223,0.109526,0,0,0,1.363333,0,0,0
8,21092034,3,pedestrian,7.5,7.6,38,682.154,755.8,1.226667,5.357259,0.109526,0.013333,0.033333,0.08,1.1,0,0,0
8,21092034,3,car,7.1,7.3,38,662.076,760.8,1.643333,13.15778,0.360377,0,1.643333,0,0,0,0,1.014199
8,21092034,3,pedestrian,7.5,7.4,38,699.611,761,1.02,5.214591,0.088648,0,0,0,1.02,0,0,0
8,21092034,3,car,7.1,7.3,38,703.662,765.2,1.023333,21.129616,0.360377,0,0.003333,1.02,0,0,0,0
8,21092034,3,pedestrian,7.5,7.1,38,341.504,769.4,7.13,4.402131,0.52312,0.24,0.143333,0.166667,6.58,0,0.467508,0
8,21092034,3,car,7.1,7.3,38,705.106,773.8,1.143333,18.911928,0.360377,0,0.006667,1.136667,0,0,0,1.457726
8,21092034,3,bike,7.1,7.5,38,588.538,777.2,3.143333,8.054336,0.421958,0.416667,1.116667,1.61,0,0,0,17.709438
8,21092034,3,bike,7.1,7.5,38,638.82,777.6,2.31,10.95994,0.421958,0.343333,0.69,0.31,0.966667,0,0,7.936508
8,21092034,3,car,7.1,7.3,38,720.258,782.8,1.04,20.791,0.360377,0,0.003333,1.036667,0,0,0,1.602564
8,21092034,3,pedestrian,7.5,7.3,38,296.309,783,8.11,3.81078,0.51509,0,0.003333,8.106667,0,0.082203,0,0
8,21092034,3,pedestrian,7.5,7.3,38,302.862,784.6,8.026667,3.850345,0.515091,1.153333,0.956667,2.446667,3.47,0.290698,0,0
8,21092034,3,car,7.1,7.6,38,709.38,784.8,1.256667,17.971178,0.376396,0,0.003333,1.253333,0,0,0,0.795756
8,21092034,3,pedestrian,7.5,7.3,38,303.235,788,8.076667,3.826508,0.515091,0.11,0.11,7.856667,0,0.577796,0,0
8,21092034,3,pedestrian,7.5,7.3,38,322.836,790.4,7.79,3.967321,0.515091,0.106667,0.226667,1.766667,5.69,0.427899,0,0
8,21092034,3,pedestrian,7.5,7.3,38,344.197,792.2,7.466667,4.139115,0.51509,0.58,0.4,1.033333,5.453333,0.401786,0,0
8,21092034,3,car,7.1,7.3,38,724.95,794.4,1.156667,18.693915,0.360377,0,0,1.156667,0,0,0,0
8,21092034,3,pedestrian,7.5,7.4,38,725.296,795,1.16,4.585119,0.088646,0.02,0.006667,0.01,1.123333,0,0,0
8,21092034,3,bike,7.6,7.1,38,719.236,798,1.31,9.976941,0.21783,0,0.57,0.003333,0.736667,0,0,8.905852
8,21092034,3,bike,7.1,7.6,38,682.812,798.2,1.92,6.807187,0.21783,0.323333,0.943333,0.653333,0,0,0,9.548611
8,21092034,3,bike,7.1,7.6,38,714.298,799,1.41,9.269361,0.21783,0.1,0.653333,0.083333,0.573333,0,0,5.437352
8,21092034,3,bike,7.1,7.6,38,729.247,799.6,1.17,11.170769,0.21783,0.026667,0.503333,0.023333,0.616667,0,0,8.547009
8,21092034,3,bike,7.1,7.6,38,733.404,800.4,1.113333,11.739341,0.21783,0.01,0.493333,0.053333,0.556667,0,0,4.491018
8,21092034,3,pedestrian,7.5,7.6,38,715.48,800.8,1.42,4.627867,0.109526,0,0,0,1.42,0,0,0
8,21092034,3,car,7.3,7.6,38,691.33,810.2,1.98,18.051437,0.595697,0,0.003333,1.976667,0,0,0,0
8,21092034,3,pedestrian,7.3,7.1,38,446.752,814.2,6.123333,4.699929,0.479654,0,0,0,6.123333,0.544366,0.762112,0
8,21092034,3,pedestrian,7.6,7.5,38,711.826,819,1.783333,3.684993,0.109526,0,0.003333,1.78,0,0,0,0
8,21092034,3,bike,7.5,7.1,38,638.398,821.2,3.046667,8.309889,0.421958,0.263333,1.13,1.653333,0,0,0,5.689278
8,21092034,3,pedestrian,7.4,7.5,38,536.342,823.2,4.78,4.63104,0.36894,0.093333,0.09,0.17,4.426667,0,0,0
8,21092034,3,pedestrian,7.4,7.5,38,558.396,825,4.443333,4.981929,0.36894,0.35,0.133333,0.37,3.59,0,0,0
8,21092034,3,pedestrian,7.5,7.4,38,738.297,825.2,1.446667,3.676262,0.088639,0.056667,0.033333,0.336667,1.02,0,2.304147,0
8,21092034,3,pedestrian,7.4,7.5,38,573.661,826.6,4.213333,5.253886,0.36894,0.38,0.12,0.176667,3.536667,0,0,0
8,21092034,3,car,7.3,7.1,38,768.544,827.4,0.98,16.760233,0.27375,0,0.003333,0.976667,0,0,0,0
8,21092034,3,pedestrian,7.6,7.5,38,737.977,828.6,1.51,4.352023,0.109526,0.243333,0.083333,0.116667,1.066667,0,0,0
8,21092034,3,pedestrian,7.6,7.5,38,748.847,830.6,1.36,4.832037,0.109526,0.096667,0.02,0.036667,1.206667,0,0,0
8,21092034,3,car,7.3,7.1,38,788.486,831.4,0.713333,23.025648,0.273749,0,0.003333,0.71,0,0,0,1.401869
8,21092034,3,car,7.1,7.3,38,771.314,836.2,1.08,20.020963,0.360377,0,0.006667,1.073333,0,0,0,1.234568
8,21092034,3,pedestrian,7.5,7.6,38,746.35,840,1.56,4.212545,0.109526,0,0.003333,0,1.556667,0,0,0
8,21092034,3,car,7.1,7.3,38,771.401,842.4,1.18,18.324244,0.360377,0.013333,0.01,1.156667,0,0,0,0.847458
8,21092034,3,car,7.3,7.6,38,716.122,851.4,2.253333,15.861773,0.595698,0.003333,0.01,2.24,0,0,0,1.035503
8,21092034,3,pedestrian,7.3,7.6,38,465.963,853.8,6.463333,4.685665,0.50475,0,0,0.003333,6.46,1.186178,6.343476,0
8,21092034,3,pedestrian,7.5,7.3,38,407.451,857,7.49,4.126226,0.515091,0.153333,0.18,0.463333,6.693333,0.801068,0,0
8,21092034,3,car,7.1,7.3,38,788.236,859,1.176667,18.376178,0.360377,0,0.003333,1.173333,0,0,0,0
8,21092034,3,pedestrian,7.5,7.3,38,411.057,859.2,7.466667,4.13912,0.515091,0.316667,0.173333,0.883333,6.093333,0.3125,0,0
8,21092034,3,pedestrian,7.5,7.3,38,436.248,861.2,7.08,4.365174,0.515091,0.303333,0.19,0.836667,5.75,0.282486,0,0
8,21092034,3,pedestrian,7.1,7.3,38,618.717,863,4.07,5.157861,0.349875,0.1,0.153333,0.166667,3.65,0.4914,0,0
8,21092034,3,bike,7.6,7.1,38,769.686,874.2,1.74,7.511337,0.217829,0.09,0.806667,0.843333,0,0,0,11.111111
8,21092034,3,car,7.1,7.6,38,774.621,874.4,1.66,13.604687,0.376396,0,1.66,0,0,0,0,0
8,21092034,3,car,7.3,7.1,38,834.26,886.2,0.863333,19.02513,0.27375,0,0.003333,0.86,0,0,0,3.088803
8,21092034,3,pedestrian,7.1,7.5,38,407.486,888.4,8.013333,2.999772,0.400636,0,0,8.013333,0,0,1.955075,0
8,21092034,3,pedestrian,7.4,7.3,38,503.384,888.8,6.423333,5.029635,0.53845,0.026667,0.033333,0.07,6.293333,1.037883,0,0
8,21092034,3,pedestrian,7.3,7.5,38,413.637,890,7.936667,4.643916,0.614287,0.786667,0.313333,1.163333,5.673333,1.385972,6.00588,0
8,21092034,3,pedestrian,7.6,7.4,38,711.822,890,2.966667,4.008018,0.198174,0.133333,0.13,0.643333,2.06,0,0,0
8,21092034,3,pedestrian,7.5,7.1,38,389.146,891.4,8.37,3.749964,0.52312,0,0.003333,8.366667,0,0.358423,0.398248,0
8,21092034,3,car,7.1,7.3,38,815.2,891.8,1.273333,16.981131,0.360377,0,0.003333,1.27,0,0,0,0
8,21092034,3,pedestrian,7.1,7.5,38,449.494,892.8,7.386667,3.254266,0.400636,1.086667,0.603333,0.98,4.716667,0.315884,10.424188,0
8,21092034,3,pedestrian,7.5,7.1,38,399.749,893.6,8.23,3.813754,0.52312,0.3,0.41,2.346667,5.173333,0.324018,0.688538,0
8,21092034,3,pedestrian,7.1,7.5,38,412.137,895.2,8.05,2.986116,0.400637,1.466667,0.84,1.413333,4.33,0.455487,7.950311,0
8,21092034,3,pedestrian,7.5,7.1,38,407.102,896.2,8.15,3.851186,0.523119,0.183333,0.366667,0.89,6.71,0.736196,0.858896,0
8,21092034,3,pedestrian,7.6,7.5,38,767.578,897.2,2.16,3.042394,0.109526,0.583333,0.156667,0.32,1.1,0,0,0
8,21092034,3,pedestrian,7.5,7.1,38,422.953,898,7.916667,3.964699,0.52312,1.22,0.466667,0.836667,5.393333,0.673684,1.515789,0
8,21092034,3,pedestrian,7.1,7.5,38,478.928,899,7,3.434033,0.400637,1.486667,0.483333,1.49,3.54,0,13.380952,0
8,21092034,3,pedestrian,7.5,7.4,38,828.548,899,1.173333,4.533139,0.088648,0,0,0.003333,1.17,0,0,0
8,21092034,3,pedestrian,7.5,7.4,38,829.892,900.8,1.18,4.507528,0.088648,0.076667,0.046667,0.163333,0.893333,0,0,0
8,21092034,3,pedestrian,7.6,7.5,38,791.557,901.6,1.833333,3.584493,0.109526,0.333333,0.046667,0.1,1.353333,0,0,0
8,21092034,3,car,7.1,7.3,38,823.66,902.4,1.31,16.505832,0.360377,0.003333,0.01,1.296667,0,0,0,2.035623
8,21092034,3,pedestrian,7.5,7.4,38,848.196,902.8,0.91,5.844926,0.088648,0,0,0,0.91,0,0,0
8,21092034,3,pedestrian,7.6,7.5,38,802.924,903.4,1.673333,3.927234,0.109526,0.356667,0.07,0.116667,1.13,0,0,0
8,21092034,3,pedestrian,7.6,7.5,38,820.484,906,1.423333,4.617027,0.109526,0.023333,0.01,0.003333,1.386667,0,0,0
8,21092034,3,pedestrian,7.5,7.6,38,816.083,907.2,1.516667,4.3329,0.109526,0,0.003333,0,1.513333,0,0,0
8,21092034,3,bike,7.1,7.6,38,831.249,914.6,1.386667,9.425336,0.21783,0,0.603333,0.783333,0,0,0,1.923077
8,21092034,3,bike,7.6,7.1,38,818.057,918.4,1.67,7.826227,0.21783,0.26,0.796667,0.213333,0.4,0,0,13.772455
8,21092034,3,pedestrian,7.1,7.4,38,551.4,919,6.126667,3.801773,0.388203,0,0.003333,6.123333,0,0.979325,1.468988,0
8,21092034,3,bike,7.6,7.1,38,853.559,925.6,1.2,10.891498,0.21783,0.01,0.523333,0.003333,0.663333,0,0,8.333333
8,21092034,3,pedestrian,7.6,7.3,38,493.609,926.8,7.216667,4.196623,0.50476,0.016667,0.003333,0.006667,7.19,2.355658,4.618938,0
8,21092034,3,car,7.3,7.1,38,875.188,931.4,0.936667,17.535618,0.27375,0,0.003333,0.933333,0,0,0,1.067616
8,21092034,3,car,7.1,7.3,38,826.105,932.2,1.766667,12.23923,0.360377,0,1.766667,0,0,0,0,0
8,21092034,3,car,7.1,7.3,38,832.823,932.6,1.66,13.025675,0.360377,0.25,0.613333,0.796667,0,0,0,0.401606
8,21092034,3,car,7.3,7.1,38,879.556,932.6,0.883333,18.594372,0.27375,0,0.006667,0.876667,0,0,0,0
8,21092034,3,car,7.1,7.3,38,830.541,933.6,1.716667,12.595698,0.360377,0.23,0.376667,1.11,0,0,0,0
8,21092034,3,pedestrian,7.1,7.6,38,729.495,936.2,3.443333,5.072604,0.291111,0,0,0.003333,3.44,0,4.453049,0
8,21092034,3,pedestrian,7.5,7.1,38,468.534,940.4,7.863333,3.991589,0.52312,0,0.003333,7.86,0,1.144553,0,0
8,21092034,3,pedestrian,7.5,7.1,38,476.12,942.4,7.77,4.039529,0.523119,0.38,0.31,2.38,4.7,1.501502,0,0
8,21092034,3,car,7.1,7.3,38,888.013,954.6,1.106667,19.538531,0.360377,0,0.003333,1.103333,0,0,0,0
8,21092034,3,car,7.1,7.3,38,893.115,956.2,1.05,20.592991,0.360377,0,0.003333,1.046667,0,0,0,0
8,21092034,3,pedestrian,7.5,7.6,38,888.377,957.4,1.15,5.714409,0.109526,0,0,0.003333,1.146667,0,0,0
8,21092034,3,pedestrian,7.6,7.3,38,511.371,958.2,7.446667,4.067006,0.504761,0,0,0.003333,7.443333,1.79051,2.193375,0
8,21092034,3,pedestrian,7.6,7.3,38,528.604,959.8,7.183333,4.216083,0.504759,1.106667,0.633333,0.066667,5.376667,1.531323,4.686775,0
8,21092034,3,pedestrian,7.5,7.3,38,528.371,962.8,7.24,4.268706,0.515091,0.013333,0.03,0.103333,7.093333,0.552486,0,0
8,21092034,3,pedestrian,7.5,7.3,38,532.599,964.8,7.203333,4.290435,0.515091,0.216667,0.196667,1.32,5.47,0.555298,0,0
8,21092034,3,pedestrian,7.1,7.5,38,483.791,965,8.02,2.997286,0.400637,0.006667,0,8.013333,0,0.623441,4.447215,0
8,21092034,3,pedestrian,7.1,7.5,38,600.809,966.8,6.096667,3.942849,0.400637,0.79,0.433333,1.476667,3.396667,0.656096,17.222526,0
8,21092034,3,pedestrian,7.6,7.5,38,852.124,968.8,1.943333,3.381597,0.109526,0.373333,0.236667,0.293333,1.04,0,0,0
8,21092034,3,pedestrian,7.4,7.5,38,646.113,971,5.413333,4.089231,0.36894,0.58,0.25,0.41,4.173333,0,0,0
8,21092034,3,pedestrian,7.6,7.5,38,865.638,972.8,1.783333,3.684993,0.109526,0.416667,0.106667,0.116667,1.143333,0,0,0
8,21092034,3,car,7.5,7.3,38,873.604,972.8,1.65,20.722546,0.56987,0,0.003333,1.646667,0,0,0,0.808081
8,21092034,3,pedestrian,7.1,7.5,38,667.504,975,5.123333,4.691903,0.400636,0.393333,0.073333,0.05,4.606667,0,2.602472,0
8,21092034,3,bike,7.1,7.6,38,856.611,976.4,1.993333,6.556755,0.21783,0.276667,1,0.716667,0,0,0,11.538462
8,21092034,3,pedestrian,7.1,7.5,38,527.518,976.6,7.483333,3.212237,0.400637,1.956667,0.573333,1.633333,3.32,0,4.54343,0
8,21092034,3,pedestrian,7.6,7.5,38,833.838,978.6,2.41,2.726793,0.109526,0.956667,0.17,0.196667,1.086667,0,0,0
8,21092034,3,pedestrian,7.5,7.1,38,569.68,979.4,6.826667,4.597733,0.52312,0.01,0.026667,0.206667,6.583333,1.123047,0,0
8,21092034,3,pedestrian,7.4,7.5,38,678.955,981.4,5.04,4.392137,0.36894,0.066667,0.006667,0.01,4.956667,0,0.661376,0
8,21092034,3,pedestrian,7.5,7.3,38,556.577,982,7.09,4.359017,0.515091,0,0,0.003333,7.086667,0.376117,0,0
8,21092034,3,pedestrian,7.5,7.3,38,558.348,983.8,7.09,4.359017,0.515091,0.453333,0.563333,0.716667,5.356667,0.423131,0,0
8,21092034,3,pedestrian,7.5,7.3,38,582.833,985.8,6.713333,4.60359,0.515091,0.29,0.253333,0.62,5.55,0.446872,0,0
8,21092034,3,bike,7.6,7.1,38,896.176,988,1.53,8.542352,0.21783,0.15,0.76,0.136667,0.483333,0,0,9.150327
8,21092034,3,pedestrian,7.5,7.3,38,588.577,988.4,6.663333,4.638134,0.515091,0.043333,0.09,0.27,6.26,0.450225,0,0
8,21092034,3,pedestrian,7.3,7.4,38,482.265,988.6,8.436667,3.626689,0.509953,0,0.003333,8.433333,0,0.750691,0.513631,0
8,21092034,3,bike,7.1,7.6,38,894.24,989.4,1.583333,8.25461,0.21783,0.22,0.763333,0.133333,0.466667,0,0,11.789474
8,21092034,3,pedestrian,7.5,7.3,38,602.085,990.2,6.466667,4.779143,0.515085,0.16,0.17,0.403333,5.733333,0.515464,0,0
8,21092034,3,pedestrian,7.3,7.4,38,511.338,990.6,7.986667,3.831031,0.509953,0.54,0.45,2.413333,4.583333,0.918197,0.542571,0
8,21092034,3,pedestrian,7.3,7.4,38,608.984,992.4,6.39,4.788289,0.509953,0.27,0.263333,0.393333,5.463333,0.365154,0.521648,0
8,21092034,3,pedestrian,7.3,7.1,38,631.995,995.6,6.06,4.749048,0.479654,0,0.003333,0.03,6.026667,0.605061,0,0
8,21092034,3,pedestrian,7.1,7.4,38,734.02,1041,5.113333,4.555184,0.388203,0,0.003333,0,5.11,0.912647,0,0
8,21092034,3,pedestrian,7.5,7.1,38,612.818,1042.8,7.163333,4.381647,0.52312,0.03,0.01,0.14,6.983333,1.070265,0,0
8,21092034,3,pedestrian,7.6,7.1,38,738.04,1045,5.113333,4.938735,0.42089,0.01,0.006667,0,5.096667,0,16.166884,0
8,21092034,3,pedestrian,7.1,7.3,38,789.725,1051,4.353333,4.822166,0.349875,0,0.003333,0,4.35,1.148545,0.765697,0
8,21092034,3,pedestrian,7.1,7.6,38,840.969,1052,3.516667,4.966824,0.291111,0.1,0.106667,0.356667,2.953333,0,6.161137,0
8,21092034,3,pedestrian,7.1,7.4,38,762.429,1053.2,4.843333,4.809125,0.388203,0.036667,0.01,0.006667,4.79,0.757054,1.720578,0
8,21092034,3,pedestrian,7.5,7.3,38,664.412,1058.6,6.566667,4.706411,0.515091,0.08,0.026667,0.213333,6.246667,0.456853,0,0
8,21092034,3,pedestrian,7.5,7.3,38,690.687,1060.2,6.156667,5.019832,0.515091,0.326667,0.213333,0.766667,4.85,0,0.649702,0
8,21092034,3,bike,7.5,7.1,38,895.797,1073,2.953333,8.572504,0.421958,0.243333,1.036667,1.673333,0,0,0,9.593679
8,21092034,3,pedestrian,7.1,7.3,38,812.199,1073.4,4.353333,4.822166,0.349875,0,0,0.01,4.343333,0,0,0
8,21092034,3,pedestrian,7.1,7.6,38,843.529,1077.8,3.903333,4.474802,0.291111,0,0,0,3.903333,0,3.501281,0
8,21092034,3,pedestrian,7.3,7.5,38,579.265,1093,8.56,4.305749,0.614287,0,0.003333,0,8.556667,0.817757,0.46729,0
8,21092034,3,pedestrian,7.1,7.5,38,782.527,1095,5.206667,4.616814,0.400637,0.076667,0.07,0.496667,4.563333,0,12.676056,0
8,21092034,3,pedestrian,7.5,7.1,38,624.761,1100.2,7.923333,3.961362,0.52312,0,0,7.923333,0,0.546908,13.546487,0
8,21092034,3,pedestrian,7.1,7.4,38,809.75,1101.8,4.866667,4.786067,0.388203,0,0,0,4.866667,0,0,0
8,21092034,3,pedestrian,7.5,7.1,38,669.616,1102.2,7.206667,4.3553,0.52312,0.33,0.306667,1.306667,5.263333,0.740056,0,0
8,21092034,3,pedestrian,7.5,7.1,38,676.815,1104.2,7.12,4.408314,0.52312,0.376667,0.263333,0.426667,6.053333,1.029963,0.468165,0
8,21092034,3,pedestrian,7.3,7.1,38,752.754,1105.8,5.883333,4.891654,0.479654,0.65,0.356667,0.446667,4.43,0.339943,0,0
8,21092034,3,pedestrian,7.6,7.1,38,793.159,1108.6,5.256667,4.804071,0.42089,0.05,0.013333,0.02,5.173333,0,10.843373,0
8,21092034,3,pedestrian,7.3,7.5,38,583.318,1111.2,8.796667,4.189906,0.614287,0,0,0.003333,8.793333,1.250474,11.671088,0
8,21092034,3,pedestrian,7.3,7.5,38,623.421,1113.4,8.163333,4.514971,0.614287,0.013333,0.006667,0.243333,7.9,2.286648,2.082483,0
8,21092034,3,pedestrian,7.3,7.4,38,746.725,1128.6,6.363333,4.808353,0.509953,0.04,0.076667,0.243333,6.003333,0.733368,0,0
8,21092034,3,pedestrian,7.1,7.5,38,821.739,1136.2,5.24,4.58745,0.400637,0,0.003333,0,5.236667,0,2.290076,0
8,21092034,3,pedestrian,7.3,7.5,38,665.641,1138.2,7.873333,4.681271,0.614287,0.026667,0.016667,0.06,7.77,0.931414,0.508044,0
8,21092034,3,pedestrian,7.3,7.5,38,667.639,1140.4,7.876667,4.67929,0.614287,0.04,0.033333,0.19,7.613333,0.846382,0.507829,0
8,21092034,3,pedestrian,7.4,7.5,38,868.051,1142.4,4.57,4.843844,0.368939,0.036667,0.02,0.093333,4.42,0,0,0
8,21092034,3,pedestrian,7.1,7.4,38,890.336,1152.2,4.363333,5.338165,0.388203,0.013333,0.003333,0,4.346667,0,2.673797,0
8,21092034,3,pedestrian,7.3,7.4,38,831.468,1155.6,5.4,5.666141,0.509953,0.17,0.153333,0.233333,4.843333,0.37037,0,0
8,21092034,3,pedestrian,7.1,7.5,38,889.282,1161,4.526667,5.310362,0.400637,0,0.003333,0,4.523333,0,2.061856,0
8,21092034,3,pedestrian,7.5,7.3,38,706.363,1180.6,7.903333,3.91043,0.515091,0,0,7.903333,0,0,0.421763,0
8,21092034,3,pedestrian,7.6,7.3,38,791.217,1182.4,6.516667,4.647385,0.504758,0.376667,0.216667,1.4,4.523333,0.409207,4.961637,0
8,21092034,3,pedestrian,7.4,7.3,38,722.983,1184.2,7.686667,4.202995,0.53845,1.263333,0.446667,1.26,4.716667,0,0.390286,0
8,21092034,3,pedestrian,7.4,7.3,38,734.3,1186.8,7.54,4.284751,0.53845,0.446667,0.41,0.716667,5.966667,0,0,0
8,21092034,3,pedestrian,7.5,7.3,38,724.654,1188.6,7.73,3.998115,0.515091,1.04,0.576667,1.616667,4.496667,0,0.43122,0
8,21092034,3,pedestrian,7.3,7.6,38,818.761,1200.4,6.36,4.761892,0.504761,0.27,0.293333,0.853333,4.943333,0.366876,0,0
8,21092034,3,pedestrian,7.5,7.1,38,712.552,1229.2,8.61,3.645435,0.52312,0,0,8.61,0,0,0.387147,0
8,21092034,3,pedestrian,7.5,7.1,38,738.374,1233.8,8.256667,3.801437,0.52312,0.41,0.313333,0.796667,6.736667,0,0.363343,0
8,21092034,3,pedestrian,7.5,7.1,38,738.994,1235.4,8.273333,3.793779,0.52312,1.67,0.506667,0.996667,5.1,0,0.362611,0
8,21092034,3,pedestrian,7.3,7.5,38,726.029,1252,8.763333,4.205839,0.614286,0,0.003333,0,8.76,0.608596,0,0
8,21092034,3,pedestrian,7.5,7.3,38,738.311,1266.6,8.803333,3.510651,0.51509,0.016667,0.003333,8.783333,0,0,0.378644,0
8,21092034,3,pedestrian,7.5,7.3,38,749.965,1268.4,8.64,3.577018,0.515091,0.906667,1.23,2.286667,4.216667,0,0.385802,0
8,21092034,3,pedestrian,7.5,7.1,38,759.916,1269,8.483333,3.699866,0.52312,0.023333,0.08,8.38,0,0,0.392927,0
8,21092034,3,pedestrian,7.6,7.3,38,855.617,1270.2,6.906667,4.384986,0.504761,0.713333,0.31,0.666667,5.216667,0,4.198842,0
8,21092034,3,pedestrian,7.5,7.1,38,824.787,1271,7.436667,4.220599,0.52312,0.44,0.356667,1.066667,5.573333,0,0,0
8,21092034,3,pedestrian,7.6,7.3,38,863.884,1272.6,6.81,4.447175,0.504754,0.303333,0.263333,0.31,5.933333,0,5.77582,0
8,21092034,3,pedestrian,7.5,7.1,38,767.35,1273,8.426667,3.724747,0.52312,1.15,0.476667,2.036667,4.763333,0,0.356013,0
8,21092034,3,pedestrian,7.5,7.1,38,845.534,1274.8,7.153333,4.387772,0.52312,1.046667,0.19,0.53,5.386667,0.139795,0,0
8,21092034,3,pedestrian,7.5,7.3,38,798.753,1275.2,7.94,3.892372,0.515091,0.563333,0.586667,0.803333,5.986667,0,0,0
8,21092034,3,pedestrian,7.5,7.1,38,771.211,1277.2,8.43,3.723274,0.52312,1.356667,0.5,0.796667,5.776667,0,0.276789,0
8,21092034,3,pedestrian,7.5,7.3,38,799.365,1277.2,7.963333,3.880966,0.51509,0.883333,0.42,0.46,6.2,0,0,0
8,21092034,3,pedestrian,7.5,7.1,38,832.095,1279,7.446667,4.214932,0.52312,1.063333,0.143333,0.38,5.86,0,0,0
8,21092034,3,pedestrian,7.5,7.3,38,852.637,1280.2,7.123333,4.338614,0.51509,0.04,0.05,0.033333,7,0.046795,0.374357,0
8,21092034,3,pedestrian,7.5,7.1,38,893.264,1280.6,6.453333,4.863708,0.523119,0.903333,0.256667,0.49,4.803333,0,0.258264,0
8,21092034,3,pedestrian,7.5,7.3,38,864.31,1282.2,6.963333,4.43831,0.515091,0.103333,0.063333,1.046667,5.75,0,4.978459,0
8,21092034,3,pedestrian,7.3,7.5,38,812.433,1282.4,7.83,4.707121,0.614279,0,0,0.003333,7.826667,0.297999,0,0
8,21092034,3,pedestrian,7.5,7.1,38,835.435,1283.2,7.46,4.207399,0.52312,1.003333,0.153333,0.283333,6.02,0.134048,0,0
8,21092034,3,pedestrian,7.5,7.3,38,767.779,1284,8.603333,3.592263,0.515091,2.046667,0.526667,1.22,4.81,0,0.309957,0
8,21092034,3,pedestrian,7.3,7.1,38,878.021,1286,6.796667,4.234315,0.479654,0.393333,0.106667,0.09,6.206667,0,0,0
8,21092034,3,pedestrian,7.6,7.3,38,893.316,1372.8,7.99,3.790442,0.504761,0,0.003333,7.986667,0,0,8.468919,0
